"Time (s)","X (rad/s)","Y (rad/s)","Z (rad/s)"
1.245899999E-2,3.232195377E-1,-7.004788518E-2,7.515491545E-2
2.242599998E-2,2.400127053E-1,5.573920161E-2,5.560009181E-2
3.239200002E-2,1.016718745E-1,1.411121488E-1,4.694534838E-2
4.235900001E-2,-3.617953137E-2,1.725863814E-1,6.092293561E-2
5.232500000E-2,-1.516936123E-1,1.033106446E-1,8.168600500E-2
6.229099998E-2,-2.523225844E-1,-3.197038919E-2,8.989833295E-2
7.225799997E-2,-3.335415423E-1,-1.418518871E-1,7.453082502E-2
8.222400001E-2,-4.006237686E-1,-2.071987838E-1,4.443047196E-2
9.219000000E-2,-4.496707022E-1,-2.423788756E-1,2.147296071E-2
1.021570000E-1,-4.761887789E-1,-3.105688691E-1,6.329327356E-3
1.121230000E-1,-4.757352471E-1,-4.060724974E-1,5.002806894E-3
1.220900000E-1,-4.677511752E-1,-4.929604530E-1,1.031115837E-2
1.320560000E-1,-4.656893313E-1,-5.507827401E-1,3.075624630E-2
1.420220000E-1,-4.661113322E-1,-5.871600509E-1,4.903567582E-2
1.519890000E-1,-4.678120315E-1,-6.242355108E-1,8.238004893E-2
1.619550000E-1,-4.724607766E-1,-6.384341121E-1,1.149057448E-1
1.719210000E-1,-4.724791646E-1,-5.899917483E-1,1.412505358E-1
1.818880000E-1,-4.441060424E-1,-5.130954385E-1,1.497376412E-1
1.918540000E-1,-3.897565305E-1,-4.960189760E-1,1.213606000E-1
2.018210000E-1,-3.114515543E-1,-5.664493442E-1,7.563206553E-2
2.117870000E-1,-2.586701214E-1,-6.693056822E-1,9.227745235E-3
2.217530000E-1,-2.334195375E-1,-7.603491545E-1,-2.804920450E-2
2.317200000E-1,-2.487857193E-1,-8.033636808E-1,5.583857652E-3
2.416860000E-1,-3.064914048E-1,-7.998080254E-1,1.068203375E-1
2.516520000E-1,-3.981289268E-1,-7.267562151E-1,2.428870946E-1
2.616190000E-1,-4.864260852E-1,-5.339567661E-1,3.508411944E-1
2.715850000E-1,-5.106712580E-1,-3.153535724E-1,3.698537946E-1
2.815520000E-1,-4.960057735E-1,-2.258301675E-1,2.557152212E-1
2.915180000E-1,-4.348529577E-1,-2.660018206E-1,2.293362841E-2
3.014840000E-1,-2.735311389E-1,-3.490618169E-1,-2.427992970E-1
3.114510000E-1,-9.065001458E-2,-5.253330469E-1,-5.857518315E-1
3.214170000E-1,-3.168132156E-2,-7.845599055E-1,-1.164351583E0
3.313830000E-1,1.467757672E-1,-7.555841804E-1,-1.737728357E0
3.413500000E-1,3.639214635E-1,-8.642411828E-1,-1.867366076E0
3.513160000E-1,5.743620396E-1,-9.076930285E-1,-1.568906665E0
3.612830000E-1,7.165152431E-1,-6.554638743E-1,-1.136880636E0
3.712490000E-1,8.597504497E-1,-3.183822632E-1,-5.956663489E-1
3.812150000E-1,1.059721947E0,-6.978841126E-2,2.668469213E-3
3.911820000E-1,1.293349266E0,5.573835224E-2,5.511949658E-1
4.011480000E-1,1.580514073E0,2.528189421E-1,1.003561020E0
4.111140000E-1,2.027805567E0,6.598114967E-1,1.248978257E0
4.210810000E-1,2.521712065E0,9.150936604E-1,1.283351898E0
4.310470000E-1,2.843052149E0,8.917329311E-1,1.373023987E0
4.410140000E-1,2.989856243E0,8.435696363E-1,1.462970138E0
4.509800000E-1,2.978362799E0,8.383919001E-1,1.496826649E0
4.609460000E-1,2.853495359E0,7.993494272E-1,1.530502558E0
4.709130000E-1,2.696211576E0,1.129451156E0,1.590434074E0
4.808790000E-1,1.387232184E0,1.066867948E0,1.415813684E0
4.908450000E-1,3.498531878E-1,2.115402460E0,1.109828711E0
5.008120000E-1,-2.357334644E-1,2.062588453E0,9.050350189E-1
5.107780000E-1,-7.692679763E-1,1.803719997E0,6.773331761E-1
5.207450000E-1,-8.465105295E-1,1.418005586E0,2.655841708E-1
5.307110000E-1,-4.779686928E-1,5.061956644E-1,-2.347670943E-1
5.406770000E-1,1.433301345E-2,-1.396386474E-1,-7.305665016E-1
5.506440000E-1,1.963118613E-1,2.684124708E-1,-1.036810517E0
5.606100000E-1,1.054873765E-1,1.587472677E0,-1.091317773E0
5.705770000E-1,2.190060169E-2,2.955037832E0,-9.757067561E-1
5.805430000E-1,4.977293313E-2,3.816356182E0,-8.050434589E-1
5.905090000E-1,1.370681524E-1,3.862419844E0,-6.130396724E-1
6.004760000E-1,2.360630333E-1,2.996334791E0,-3.871115744E-1
6.104420000E-1,1.654221565E-1,1.790872812E0,-1.301761866E-1
6.204080000E-1,-7.606831938E-2,1.040862203E0,5.445098504E-2
6.303750000E-1,-4.327023327E-1,1.013197303E0,9.880566597E-2
6.403410000E-1,-7.574089170E-1,1.520344138E0,5.971156992E-3
6.503070000E-1,-9.684841633E-1,2.335041285E0,-1.575679779E-1
6.602740000E-1,-9.962739348E-1,2.986021996E0,-2.857910693E-1
6.702400000E-1,-9.071033597E-1,3.465459824E0,-3.240247667E-1
6.802070000E-1,-7.132955790E-1,3.733297825E0,-2.971764207E-1
6.901730000E-1,-6.431415081E-1,3.665006399E0,-1.613008827E-1
7.001390000E-1,-6.737970710E-1,3.402813435E0,-2.474702522E-2
7.101060000E-1,-8.157749772E-1,2.768794775E0,6.804256886E-2
7.200720000E-1,-9.952576160E-1,2.339621305E0,1.892888173E-2
7.300390000E-1,-1.075827479E0,2.320726156E0,-3.209967315E-1
7.400050000E-1,-1.109490275E0,2.618700027E0,-9.885793328E-1
7.499710000E-1,-1.125496387E0,2.764404535E0,-1.845254302E0
7.599380000E-1,-1.136050463E0,2.654903889E0,-2.656265020E0
7.699040000E-1,-1.193374753E0,2.558459520E0,-3.207676649E0
7.798700000E-1,-1.371068597E0,2.333683729E0,-3.520354033E0
7.898370000E-1,-1.718134165E0,1.919898629E0,-3.614608526E0
7.998030000E-1,-2.190136194E0,1.901105165E0,-3.557898998E0
8.097700000E-1,-2.654926062E0,2.483096361E0,-3.468923569E0
8.197360000E-1,-3.047509432E0,3.386497259E0,-3.432235718E0
8.297020000E-1,-3.339673758E0,4.388009548E0,-3.446863651E0
8.396690000E-1,-3.395291090E0,5.216078758E0,-3.549784422E0
8.496350000E-1,-1.985926509E0,5.303973675E0,-3.596866131E0
8.596010000E-1,-3.501811922E-1,4.891102314E0,-3.679305315E0
8.695680000E-1,1.125990629E0,4.581655025E0,-3.773128748E0
8.795340000E-1,1.844015718E0,5.210050106E0,-4.063816071E0
8.895010000E-1,1.999910951E0,5.686349869E0,-4.368076324E0
8.994670000E-1,1.903735518E0,5.655849457E0,-4.650364876E0
9.094330000E-1,1.776614428E0,5.521276474E0,-4.798990250E0
9.194000000E-1,1.682271004E0,5.193190098E0,-4.844027996E0
9.293660000E-1,1.562634349E0,4.683562279E0,-4.940003395E0
9.393320000E-1,1.422335505E0,4.142911434E0,-5.090170383E0
9.492990000E-1,1.316094756E0,3.532096148E0,-5.106469154E0
9.592650000E-1,1.343039632E0,2.820776224E0,-4.884718418E0
9.692320000E-1,1.403783202E0,2.164209366E0,-4.563354015E0
9.791980000E-1,1.299786925E0,1.713693261E0,-4.310638905E0
9.891640000E-1,1.032004476E0,1.431368828E0,-4.220221519E0
9.991310000E-1,7.104717493E-1,1.106015444E0,-4.007514477E0
1.009097000E0,4.721769392E-1,8.978235126E-1,-3.834528208E0
1.019063000E0,3.361952305E-1,6.055763960E-1,-3.710825682E0
1.029029500E0,2.913132608E-1,3.245815039E-1,-3.582832336E0
1.038995500E0,3.614833355E-1,2.134405375E-1,-3.374593973E0
1.048962500E0,4.998345673E-1,2.771254778E-1,-2.944559097E0
1.058928500E0,6.280128956E-1,3.159483969E-1,-2.354871511E0
1.068894500E0,5.921342373E-1,1.860819906E-1,-1.759827614E0
1.078861500E0,3.001102209E-1,-1.095862240E-1,-1.424309134E0
1.088827500E0,-2.006501108E-1,-8.957729936E-1,-1.049907327E0
1.098793500E0,-8.436968327E-1,-1.734466314E0,-6.671242118E-1
1.108760500E0,-1.614806294E0,-2.683119059E0,-3.988341987E-1
1.118726500E0,-2.408763885E0,-3.380521297E0,-3.028114140E-1
1.128693500E0,-3.080582857E0,-3.793889761E0,-1.677348167E-1
1.138659500E0,-3.454742193E0,-3.889908791E0,-2.020415664E-2
1.148625500E0,-3.344477177E0,-3.660122395E0,-6.169327721E-2
1.158592500E0,-2.793453455E0,-3.022840261E0,-1.711991429E-1
1.168558500E0,-1.955531716E0,-1.815832734E0,-2.390554249E-1
1.178524500E0,-9.828420281E-1,-1.124045730E0,-3.196350634E-1
1.188491500E0,-3.901478052E-1,-6.628785133E-1,-4.489714801E-1
1.198457500E0,3.573346138E-2,3.274132311E-2,-6.177884340E-1
1.208424500E0,5.553614497E-1,1.390240937E-1,-7.297972441E-1
1.218390500E0,9.420228004E-1,-4.564754665E-2,-7.960633636E-1
1.228356500E0,1.193166614E0,1.193696335E-1,-9.785767198E-1
1.238323500E0,1.518051028E0,3.851331174E-1,-1.323390603E0
1.248289500E0,1.132488489E0,8.865179420E-1,-1.364701033E0
1.258255500E0,5.935837030E-1,1.274228096E0,-8.681225777E-1
1.268222500E0,1.156754732E0,8.702166080E-1,-3.964182138E-1
1.278188500E0,7.713389993E-1,1.272987366E0,-2.874328792E-1
1.288155500E0,2.916243672E-1,1.123636246E0,-1.840537637E-1
1.298121500E0,3.656250834E-1,7.540922165E-1,-1.082414314E-1
1.308087500E0,7.244114280E-1,9.685445428E-1,-1.670538783E-1
1.318054500E0,1.199515581E0,5.544671416E-1,8.766920120E-2
1.328020500E0,1.799425364E0,1.291216850E0,5.508036017E-1
1.337986500E0,2.534792900E0,2.945654869E0,8.792739511E-1
1.347953500E0,2.931274891E0,2.750383377E0,1.247303367E0
1.357919500E0,2.713932753E0,2.875050068E0,1.159323692E0
1.367886500E0,2.707883120E0,2.458272457E0,6.614820361E-1
1.377852500E0,2.444761276E0,2.165848017E0,3.505075872E-1
1.387818500E0,2.287614346E0,2.037863493E0,3.427593708E-1
1.397785500E0,1.978271127E0,2.189471006E0,4.936581850E-1
1.407751500E0,2.167247295E0,1.635793805E0,9.583880305E-1
1.417717500E0,2.974180698E0,1.561070085E0,1.329595923E0
1.427684500E0,2.850356340E0,2.977826834E0,1.126574159E0
1.437650500E0,2.713222027E0,3.439903021E0,8.336960077E-1
1.447617500E0,2.566984653E0,3.307912588E0,4.088102281E-1
1.457583500E0,2.326947689E0,2.777342796E0,7.274867594E-2
1.467549500E0,1.987876177E0,2.007448435E0,-3.567500412E-2
1.477516500E0,1.345753670E0,1.271741509E0,-1.289504468E-1
1.487482500E0,4.424610138E-1,9.799431562E-1,-4.055812359E-1
1.497449500E0,-3.898162544E-1,1.377392650E0,-2.485160828E-1
1.507415500E0,-5.848659277E-1,1.156035781E0,5.462726951E-2
1.517381500E0,-4.350140691E-1,1.119275689E0,1.909035742E-1
1.527348500E0,-2.063646615E-1,1.455733538E0,2.388463318E-1
1.537314500E0,3.446339816E-2,1.367921233E0,2.361918390E-1
1.547280500E0,9.277437627E-2,1.208095431E0,2.150079906E-1
1.557247500E0,-1.110927016E-1,9.331951737E-1,2.069498599E-1
1.567213500E0,-3.565407991E-1,4.137935936E-1,2.783500254E-1
1.577179500E0,-5.211733580E-1,-7.787106186E-2,2.710855007E-1
1.587146500E0,-5.374884009E-1,-3.869508803E-1,2.413025796E-1
1.597112500E0,-4.787696302E-1,-4.479081929E-1,2.198764086E-1
1.607079500E0,-4.938252866E-1,-2.981889844E-1,2.444139719E-1
1.617045500E0,-5.023435354E-1,-2.341581881E-1,2.828873396E-1
1.627011500E0,-5.680133700E-1,-1.116831303E-1,2.872788906E-1
1.636978500E0,-6.590589285E-1,4.685742781E-2,2.793847620E-1
1.646944500E0,-7.514706254E-1,5.009530112E-2,2.298057526E-1
1.656910500E0,-9.184905291E-1,-1.459238380E-1,9.917736053E-2
1.666877500E0,-1.310794592E0,-7.641737461E-1,-4.706159979E-2
1.676843500E0,-1.603175998E0,-9.129498005E-1,-2.031268626E-1
1.686810500E0,-1.246224284E0,-2.929797471E-1,-7.111902535E-2
1.696776500E0,-8.503540754E-1,8.138595521E-2,-5.738006905E-2
1.706742500E0,-4.099253118E-1,8.484362364E-1,-5.042123049E-2
1.716709500E0,1.746310145E-1,2.030097008E0,-8.626449853E-4
1.726675500E0,6.760357618E-1,2.960924149E0,-9.436117113E-2
1.736641500E0,9.050081372E-1,3.400287867E0,-3.708128631E-1
1.746608500E0,9.489782453E-1,3.546365738E0,-7.419019938E-1
1.756574500E0,8.232421279E-1,3.400307417E0,-1.016289353E0
1.766541500E0,5.156385303E-1,3.019397497E0,-1.360408664E0
1.776507500E0,2.034786940E-1,2.540716648E0,-1.565678120E0
1.786473500E0,1.299727857E-1,2.364807844E0,-2.063033104E0
1.796440500E0,1.154648662E-1,2.804252386E0,-2.986004353E0
1.806406500E0,1.992340535E-1,3.187622309E0,-3.870856285E0
1.816372500E0,1.266188025E-1,3.085683107E0,-4.671336174E0
1.826339500E0,1.331382096E-1,2.540622711E0,-5.177478790E0
1.836305500E0,1.962782443E-1,2.096179008E0,-4.564662933E0
1.846272500E0,1.888054162E-1,1.316181064E0,-2.897618532E0
1.856238500E0,9.307463467E-2,2.964788377E-1,-1.455330729E0
1.866204500E0,-1.382973343E-1,-1.559711993E-1,-7.265388966E-1
1.876171500E0,-4.109500051E-1,4.846492410E-2,-6.592498422E-1
1.886137500E0,-3.662573695E-1,1.114076674E-1,-7.940763831E-1
1.896104500E0,-2.477909327E-1,2.232025936E-2,-7.659814954E-1
1.906070500E0,-1.022142842E-1,-1.753115952E-1,-5.686082244E-1
1.916036500E0,-9.818901308E-3,-3.449463844E-1,-4.412142336E-1
1.926003500E0,7.262324542E-2,-5.019274950E-1,-4.203230739E-1
1.935969500E0,1.888314337E-1,-5.220800042E-1,-3.937297463E-1
1.945935500E0,2.867287099E-1,-3.802200556E-1,-3.525596559E-1
1.955902500E0,3.843414187E-1,4.314426333E-2,-4.652370811E-1
1.965868500E0,4.578303099E-1,5.037670135E-1,-4.957755506E-1
1.975834500E0,4.458388388E-1,6.495941877E-1,-4.110873342E-1
1.985801500E0,3.713100255E-1,6.278705001E-1,-4.108287394E-1
1.995767500E0,3.048457801E-1,6.801658869E-1,-5.342159867E-1
2.005734500E0,2.538371980E-1,6.358354092E-1,-5.831307769E-1
2.015700500E0,2.215187401E-1,3.916353285E-1,-4.860966802E-1
2.025666500E0,2.060316652E-1,1.086488813E-1,-4.133566916E-1
2.035633500E0,1.034041122E-1,-3.194363415E-2,-5.529878139E-1
2.045599500E0,-1.879611611E-1,-1.566186547E-2,-8.630279899E-1
2.055566500E0,-4.309072793E-1,-2.784034312E-1,-1.013402820E0
2.065532500E0,-4.673033655E-1,-4.917306006E-1,-1.097544074E0
2.075498500E0,-3.912000656E-1,-2.692541182E-1,-1.257537723E0
2.085465500E0,-2.922018468E-1,-1.252540797E-1,-1.212961435E0
2.095431500E0,-1.406179368E-1,-3.164651990E-1,-1.020807862E0
2.105397500E0,7.247915864E-2,-4.422417581E-1,-7.674216032E-1
2.115364500E0,2.297666669E-1,-1.023921072E-1,-5.463716984E-1
2.125330500E0,5.162663460E-1,3.262332678E-1,-5.507915020E-1
2.135297500E0,8.511056900E-1,1.341939807E0,-1.096781135E0
2.145263500E0,1.052723527E0,1.669183969E0,-4.573348761E-1
2.155229500E0,1.266428113E0,8.914743066E-1,-2.173885852E-1
2.165196500E0,1.242333412E0,4.712991714E-1,-3.432632424E-3
2.175162500E0,9.791184664E-1,3.455328941E-1,1.471171379E-1
2.185128500E0,7.163385153E-1,2.093633413E-1,2.273384780E-1
2.195095500E0,6.385417581E-1,1.741601378E-1,3.332217634E-1
2.205061500E0,5.886229873E-1,1.886666417E-1,4.120308161E-1
2.215028500E0,4.124986529E-1,-1.852377132E-2,3.845901191E-1
2.224994500E0,2.036250532E-1,-1.441557258E-1,1.885377914E-1
2.234960500E0,6.332090124E-4,-1.079358608E-1,-6.693160534E-2
2.244927500E0,-1.543321460E-1,-1.149614435E-2,-1.289518327E-1
2.254893500E0,-1.784054041E-1,1.244384348E-1,-8.730098605E-2
2.264859500E0,-1.112074554E-1,1.146665066E-1,3.305611433E-3
2.274826500E0,-3.741425276E-2,4.682438076E-2,5.585174263E-2
2.284792500E0,3.121887334E-2,1.413355023E-2,5.860491842E-2
2.294759500E0,7.111453265E-2,-1.937104389E-2,3.756267577E-2
2.304725500E0,6.195246428E-2,-3.787655011E-2,1.485816296E-2
2.314691500E0,1.989105344E-2,-3.679879382E-2,-5.077245645E-3
2.324658500E0,-2.074106038E-2,-2.172290534E-2,-1.264435146E-2
2.334624500E0,-5.014958605E-2,-2.049993537E-2,-9.555529803E-3
2.344590500E0,-5.829246715E-2,1.027794927E-2,-4.502981436E-3
2.354557500E0,-5.583003908E-2,2.513252571E-2,-8.012567647E-3
2.364523500E0,-4.844083264E-2,3.359365463E-2,-1.023976970E-2
2.374489500E0,-1.757062227E-2,2.237013914E-2,8.283788338E-5
2.384456500E0,2.729325742E-2,-1.751096547E-2,1.270515658E-2
2.394422500E0,6.096782535E-2,-8.601844311E-2,3.347486258E-2
2.404389500E0,6.161896884E-2,-1.472775340E-1,4.878005013E-2
2.414355500E0,4.143767804E-2,-1.556983292E-1,4.724391550E-2
2.424321500E0,1.732488722E-2,-1.006438732E-1,3.635158390E-2
2.434288500E0,-6.993879564E-3,-2.121765912E-2,1.911634021E-2
2.444254500E0,-2.559526078E-2,2.943859249E-2,-7.484443486E-4
2.454221500E0,-5.585149676E-2,-3.558613360E-2,4.279479384E-3
2.464187500E0,-1.049306244E-1,-2.313324660E-1,1.209718827E-2
2.474153500E0,-1.754746288E-1,-5.456399918E-1,3.027526662E-2
2.484120500E0,-3.017385602E-1,-7.929797769E-1,1.509244591E-1
2.494086500E0,-4.511729181E-1,-3.762885332E-1,4.569420516E-1
2.504052500E0,-3.652974367E-1,1.957691312E-1,6.973775029E-1
2.514019500E0,-2.388191521E-1,2.314144969E-1,8.245403171E-1
2.523985500E0,-2.657618225E-1,2.413680553E-1,6.590419412E-1
2.533952500E0,-3.401883841E-1,2.741792798E-1,5.396689177E-1
2.543918500E0,-3.892139792E-1,3.132097721E-1,3.915643990E-1
2.553884500E0,-4.318526983E-1,1.981348991E-1,1.418594718E-1
2.563851500E0,-3.899158835E-1,2.450371534E-2,-8.701392263E-2
2.573817500E0,-2.166873515E-1,-1.049677730E-1,-1.462925076E-1
2.583783500E0,-1.823658496E-2,-1.372924298E-1,-1.566090584E-1
2.593750500E0,9.525930136E-2,-1.684201807E-1,-1.999572068E-1
2.603716500E0,7.460834831E-2,-2.596422434E-1,-3.090078235E-1
2.613683500E0,4.370380193E-2,-4.740177691E-1,-4.356455803E-1
2.623649500E0,6.592574716E-2,-6.804159880E-1,-5.232955217E-1
2.633615500E0,6.705330312E-2,-5.977097154E-1,-5.805138946E-1
2.643582500E0,9.345454723E-2,-2.770890892E-1,-6.182103753E-1
2.653548500E0,1.869609058E-1,2.142778635E-1,-7.429930568E-1
2.663514500E0,4.133581221E-1,6.605687737E-1,-1.111697793E0
2.673481500E0,5.495988727E-1,7.133371830E-1,-1.521772146E0
2.683447500E0,5.799165964E-1,7.296242714E-1,-1.504220366E0
2.693414500E0,5.939512253E-1,9.162052870E-1,-1.901608229E0
2.703380500E0,6.341817379E-1,9.778092504E-1,-2.734672308E0
2.713346500E0,7.783159018E-1,9.812038541E-1,-3.186290026E0
2.723313500E0,1.033710361E0,5.989672542E-1,-2.503234148E0
2.733279500E0,1.263024569E0,-4.799595848E-2,-1.248605847E0
2.743245500E0,3.241617680E-1,-1.644109964E0,-2.370386384E-2
2.753212500E0,-3.187702298E-1,-6.558347344E-1,5.742623471E-3
2.763178500E0,-3.069417775E-1,8.835123479E-2,5.325528234E-2
2.773145500E0,-1.121056825E-1,2.504056692E-1,1.323119551E-1
2.783111500E0,-6.328675151E-2,2.822884917E-1,2.012569457E-1
2.793077500E0,-1.644175351E-1,3.179523647E-1,3.214393556E-1
2.803044500E0,-3.553041220E-1,2.229606211E-1,4.151943326E-1
2.813010500E0,-1.483509243E-1,-3.217440248E-1,4.567491412E-1
2.822976500E0,-7.953216881E-2,-3.198465407E-1,4.895251989E-1
2.832943500E0,-1.256103963E-1,-4.887206480E-2,5.333495736E-1
2.842909500E0,-1.194781959E-1,1.226608008E-1,5.534883738E-1
2.852876500E0,-1.935155094E-1,2.124057114E-1,5.125395656E-1
2.862842500E0,-2.944066823E-1,2.859891057E-1,4.423151612E-1
2.872808500E0,-2.850427330E-1,1.328277886E-1,3.556689620E-1
2.882775500E0,-2.968565226E-1,-1.232569888E-1,4.188385904E-1
2.892741500E0,-3.487644792E-1,-3.946958184E-1,3.962532878E-1
2.902707500E0,-4.467355013E-1,-4.104920924E-1,1.182616204E-1
2.912674500E0,-4.429763556E-1,-3.743914068E-1,-3.449375927E-2
2.922640500E0,-3.650871515E-1,-2.632321417E-1,-3.491773456E-2
2.932607500E0,-3.180169165E-1,-1.947996467E-1,3.208868438E-3
2.942573500E0,-2.932990789E-1,-1.578570753E-1,-3.391186893E-2
2.952539500E0,-1.752349436E-1,2.785573527E-2,-1.055846065E-1
2.962506500E0,1.025319621E-1,2.799929082E-1,-1.675771326E-1
2.972472500E0,2.414186597E-1,2.153026462E-1,-3.213687241E-2
2.982438500E0,-8.525933325E-2,-2.898473442E-1,9.696625173E-2
2.992405500E0,-1.287629604E-1,-1.474316120E-1,4.948794376E-3
3.002371500E0,-4.314578697E-2,-4.997030646E-2,-5.531214923E-2
3.012338500E0,-4.021710902E-2,-1.689730138E-1,-1.177349389E-1
3.022304500E0,-3.380261734E-2,-2.432570904E-1,-1.950422376E-1
3.032270375E0,4.288870841E-3,-1.193155199E-1,-9.168133140E-2
3.042237375E0,1.174971648E-2,4.575545713E-2,6.330692023E-2
3.052203375E0,-7.382090390E-2,1.551487893E-1,9.865775704E-2
3.062169375E0,-7.342489064E-2,3.264496475E-2,1.343134940E-1
3.072136375E0,-6.999522448E-2,-8.418746293E-3,1.668025106E-1
3.082102375E0,-6.217778102E-2,-3.729859740E-2,1.621776670E-1
3.092069375E0,-3.373145312E-2,-1.277119853E-2,1.331736296E-1
3.102035375E0,-5.763545632E-2,1.210776791E-1,7.147669792E-2
3.112001375E0,-6.431113929E-2,2.113688737E-1,-2.047280781E-2
3.121968375E0,1.514853071E-2,3.538746238E-1,-1.902293414E-1
3.131934375E0,2.308380604E-1,5.538855195E-1,-3.601827919E-1
3.141900375E0,5.812005997E-1,1.061376929E0,-4.833342731E-1
3.151867375E0,4.861744344E-1,7.899733186E-1,-4.800125062E-1
3.161833375E0,3.321856856E-1,4.218978584E-1,-5.815284848E-1
3.171800375E0,4.985434115E-1,-1.367338002E-1,-8.445729017E-1
3.181766375E0,6.531790495E-1,-7.919009924E-1,-7.535327673E-1
3.191732375E0,5.154290795E-1,-1.056539655E0,-4.205797017E-1
3.201699375E0,3.130213916E-1,-8.756369352E-1,-2.326593548E-1
3.211665375E0,2.544667125E-1,-4.033502042E-1,-1.788779795E-1
3.221631375E0,2.661752999E-1,-2.173145488E-2,-2.362217009E-1
3.231598375E0,3.827538490E-1,9.768733382E-2,-1.723146588E-1
3.241564375E0,3.590344191E-1,2.856031656E-1,-2.161449641E-1
3.251531375E0,3.116277456E-1,4.631610811E-1,-2.965379059E-1
3.261497375E0,2.612370253E-1,5.376179814E-1,-4.165226519E-1
3.271463375E0,2.887253761E-1,5.149722695E-1,-4.652303159E-1
3.281430375E0,3.344907165E-1,4.827741385E-1,-4.029453695E-1
3.291396375E0,3.251697123E-1,4.394004047E-1,-3.393695354E-1
3.301362375E0,2.940275073E-1,3.217869699E-1,-3.110145926E-1
3.311329375E0,2.563024759E-1,1.948878914E-1,-2.379595190E-1
