,Time (s),Acceleration x (m/s^2),Acceleration y (m/s^2),Acceleration z (m/s^2)
8849,45.008972,-0.383072257,4.970362663,10.20169353
8850,45.013977,-0.3088520169,4.821922302,10.26394272
8851,45.018982,-0.2178723514,4.632780075,10.11550236
8852,45.023987,-0.07661445438999999,4.443638325,9.725247383
8853,45.028992,-0.0143652102,4.362235546,9.375694275
8854,45.033997,0.04548983276000001,4.311957359,9.0740242
8855,45.039978,0.052672438319999994,4.261679173,8.73404789
8856,45.044983,0.117315881,4.276044369,8.441955566
8857,45.049988,0.2130839527,4.285621166,8.085219383
8858,45.054993,0.2944868207,4.316745758,7.644686222000001
8859,45.059998,0.31842881440000004,4.393360138,7.216124057999999
8860,45.065002,0.2130839527,4.508281708,6.773196697
8861,45.070007,0.059855043889999994,4.592078686,6.660669327000001
8862,45.074951,-0.047884032130000004,4.704606533,6.732495308
8863,45.080017,-0.047884032130000004,4.747702122,6.87614727
8864,45.084839,0.0287304204,4.730942726,7.003039837
8865,45.089905,0.1388636976,4.623203278,7.16824007
8866,45.094971,0.3064578176,4.469974518,7.400477409
8867,45.099975,0.44292730090000004,4.350264548999999,7.709329605
8868,45.10498,0.5267243981,4.285621166,8.070854187
8869,45.109985,0.5746083856,4.283226967,8.54251194
8870,45.11499,0.55784899,4.307168961,8.983044624
8871,45.120972,0.5219359994,4.230554581,9.48343277
8872,45.125976,0.47644615170000004,4.103661537,9.753977776000001
8873,45.130981,0.4620809257,3.936067581,9.806650162
8874,45.135986,0.4860229492,3.7995979789999996,9.662998199
8875,45.141968,0.5530605912,3.7541081910000003,9.442731857
8876,45.146972,0.6488286853,3.7995979789999996,9.246406555
8877,45.151977,0.8140285611,3.881000996,8.990227699
8878,45.156982,1.012747288,3.9552211760000002,8.791508675
8879,45.161987,1.170764685,4.0509891510000005,8.588001251
8880,45.166931,1.278503656,4.141968727,8.4012537
8881,45.171997,1.379060149,4.230554581,8.219294547999999
8882,45.177002,1.482010841,4.367023945,7.999027729
8883,45.182007,1.5825673340000002,4.493916512,7.912836552000001
8884,45.187011,1.659181833,4.6184148789999995,7.95832634
8885,45.192016,1.716642618,4.733336926000001,8.159439087
8886,45.19696,1.764526606,4.805162907,8.425195694
8887,45.201965,1.786074519,4.805162907,8.664615631
8888,45.20697,1.8052281140000002,4.730942726,8.839392662
8889,45.211975,1.7764976019999998,4.656722069,8.987833023
8890,45.21698,1.812410712,4.635174274,8.983044624
8891,45.221984,1.8650830980000002,4.671087742,8.84896946
8892,45.226989,1.9033904080000001,4.71657753,8.671798706
8893,45.232971,1.905784607,4.742913723,8.487444878
8894,45.237976,1.9728221890000002,4.774038315,8.413225173999999
8895,45.244018,2.068590164,4.809951305,8.353369713
8896,45.248962,2.1643583769999997,4.809951305,8.293514252000001
8897,45.253967,2.214636564,4.769249916000001,8.173804282999999
8898,45.258789,2.250549555,4.57771349,7.967903137
8899,45.263977,2.245761156,4.5106759069999995,7.893682957
8900,45.268981,2.221819162,4.400542736,7.781155586000001
8901,45.273803,2.23139596,4.357447147,7.7141180039999995
8902,45.278991,2.19308877,4.355052948,7.675810814
8903,45.283996,2.15478158,4.352658749,7.675810814
8904,45.289001,2.011129379,4.343081951,7.635109425
8905,45.294006,1.996764183,4.371812343999999,7.627926826
8906,45.299011,2.080561161,4.5106759069999995,7.625532627
8907,45.304015,2.22900176,4.666299343,7.704541206
8908,45.308959,2.358288765,4.824316502,7.855375767000001
8909,45.313964,2.406172752,4.920084476,8.068459511
8910,45.318969,2.370259762,4.893748283,8.231265067999999
8911,45.323974,2.303221941,4.747702122,8.192957878
8912,45.330016,2.173935175,4.513070107,7.951143742
8913,45.33496,2.037465572,4.299986362,7.738059998
8914,45.339965,1.893813491,4.127603531,7.5441293720000004
8915,45.34497,1.78368032,4.041412353999999,7.402871609
8916,45.349975,1.726219416,4.005499363,7.290344237999999
8917,45.35498,1.7764976019999998,4.007893562,7.216124057999999
8918,45.359985,1.881842494,4.072536945,7.220912457000001
8919,45.364989,2.11647439,4.228160381,7.295132637000001
8920,45.369994,2.420537949,4.434061527,7.455543995
8921,45.374999,2.758120298,4.745307922,7.7141180039999995
8922,45.380004,3.069366693,5.044582844,8.03494072
8923,45.384948,3.3279404639999997,5.27442646,8.360552788
8924,45.390014,3.483563423,5.379771233,8.662221909
8925,45.395019,3.5027170180000002,5.3582234380000004,8.923190117
8926,45.401,3.402160645,5.19781208,8.904036522
8927,45.406005,3.282450438,4.929661274,8.712499618999999
8928,45.410888,3.062183857,4.632780075,8.386888504
8929,45.416015,2.920926094,4.42209053,8.188169478999999
8930,45.42102,2.767697096,4.254496574,7.939172745
8931,45.425963,2.60010314,4.153939724,7.69257021
8932,45.430968,2.4779987340000003,4.084507942,7.422025204
8933,45.437011,2.379836559,4.060565948,7.1466922760000005
8934,45.442016,2.288856745,4.027047157,7.022193432000001
8935,45.446959,2.2553379540000003,4.036623955,7.0413470270000005
8936,45.451964,2.3199813369999998,4.0581717489999996,7.173028469
8937,45.456969,2.358288765,4.09169054,7.335834026000001
8938,45.461974,2.3870191569999997,4.127603531,7.568071365
8939,45.466979,2.41574955,4.1850647930000004,7.84340477
8940,45.471984,2.523488522,4.304774761,8.140285492
8941,45.476989,2.8036100860000004,4.474762917,8.50420475
8942,45.481994,3.004723072,4.532223701,8.717288017000001
8943,45.486998,3.1172506810000002,4.505887508,8.757989882999999
8944,45.492003,3.145981073,4.3813891410000005,8.609549522
8945,45.496886,3.15795207,4.197035789,8.082824707
8946,45.501952,3.090914488,4.09408474,7.673416615
8947,45.507994,2.906560898,3.912125587,6.988674641
8948,45.512999,2.67432332,3.785232782,6.476315498
8949,45.518004,2.3942017559999997,3.651157618,5.963956356000001
8950,45.523009,2.202665567,3.5314474110000003,5.652710438
8951,45.528014,2.039859772,3.450044632,5.379771233
8952,45.533019,1.912967205,3.38300705,5.204994678
8953,45.537963,1.81959331,3.361459255,5.178658485
8954,45.542968,1.742978811,3.38300705,5.370194435
8955,45.547972,1.675941229,3.454833031,5.755661011
8956,45.552977,1.63763392,3.5769374369999998,6.296750546
8957,45.557982,1.675941229,3.6176388260000003,6.734889507
8958,45.562987,1.690306425,3.56736064,7.036558628
8959,45.567992,1.7118542190000001,3.5242648119999997,7.173028469
8960,45.572997,1.7118542190000001,3.5027170180000002,7.094019413
8961,45.578978,1.798045516,3.598485231,6.924031257999999
8962,45.583983,1.8602947,3.687070608,6.706159115
8963,45.588988,1.905784607,3.6918590069999997,6.409277916000001
8964,45.593993,1.843535304,3.6128504280000002,6.246472359
8965,45.598998,1.78128612,3.5242648119999997,6.181828976
8966,45.604003,1.757344007,3.406949043,6.191405773
8967,45.609007,1.824381709,3.397372246,6.268020152999999
8968,45.614012,1.910573006,3.4428620339999996,6.440402507999999
8969,45.618959,1.9584569930000002,3.541024208,6.646304131
8970,45.623964,2.001552582,3.6966474060000003,6.830657482
8971,45.628968,1.9776105880000001,3.924096584,7.012616634
8972,45.633973,1.9584569930000002,4.046200752,7.218518257
8973,45.638978,1.927332401,4.12999773,7.4292078020000005
8974,45.643983,1.850717902,4.113238335,7.556100367999999
8975,45.648988,1.7190368180000002,4.003105164,7.541735172
8976,45.653993,1.5442601440000001,3.904942989,7.448361397
8977,45.658998,1.422155857,3.787626982,7.242460251000001
8978,45.664002,1.37427175,3.7397429939999998,7.127538681
8979,45.669007,1.314416766,3.713406801,7.082048416
8980,45.674012,1.209071875,3.660734415,7.187393665
8981,45.679017,1.058237195,3.596091032,7.5153989789999995
8982,45.683961,0.9552865028,3.552995205,8.037335396
8983,45.688966,0.9911994934,3.624821424,8.729259491
8984,45.693971,1.383848548,3.9480385780000002,9.232041359
8985,45.698976,1.965639591,4.38378334,9.557653427
8986,45.70398,2.7198131080000003,4.850652695,9.583989143
8987,45.708985,3.572149038,5.214571476000001,9.193734168999999
8988,45.713929,4.426878929,5.4515972139999995,8.422801971
8989,45.718995,5.257667065,5.523423195,7.388506412999999
8990,45.724,6.086060524,5.525817394,5.908889771
8991,45.729005,6.435614108999999,5.537788391,4.881777287
8992,45.73401,6.488286495,5.638344765,4.173093796
8993,45.739014,6.2201361660000005,5.736507416,3.871424198
8994,45.744019,5.662287235,5.841852188,4.048594952
8995,45.748902,5.027823448,5.841852188,4.596867085
8996,45.753968,4.376600742,5.765237807999999,5.456385612
8997,45.758973,3.648763418,5.4875102039999994,7.242460251000001
8998,45.763978,3.0765492919999997,5.025429249,9.143456459
8999,45.768983,2.533065319,4.335899353,11.11627865
9000,45.773988,1.9560627940000002,3.5242648119999997,12.8496809
9001,45.778931,1.436521053,2.746149302,14.08987713
9002,45.784974,0.8690952062999999,1.908178806,14.83447361
9003,45.789979,0.47405192259999995,1.362300754,14.93024158
9004,45.794984,0.19393034280000002,0.9816226959000001,14.68124485
9005,45.799988,0.1771709323,0.7469909190999999,13.80975533
9006,45.80597,0.6033388376,0.8810662031000001,12.40675354
9007,45.810975,1.125274777,1.268926859,11.22401714
9008,45.81598,1.786074519,1.936909199,10.3357687
9009,45.820984,2.588132143,2.765302896,9.87608242
9010,45.825989,3.500322819,3.6846764089999997,9.928754807
9011,45.830994,4.436455727,4.57531929,10.41238308
9012,45.835877,5.3582234380000004,5.446808815,11.06599998
9013,45.840943,6.483498096,6.435614108999999,11.79144382
9014,45.846009,7.275979042,7.072471619,12.01649857
9015,45.85199,8.030152321000001,7.7141180039999995,11.96382618
9016,45.857972,8.434772491,8.118738174,11.71722317
9017,45.862977,8.489839554,8.185775757,11.52329254
9018,45.867981,8.293514252000001,7.943961142999999,11.33175659
9019,45.872986,7.963114738,7.4866685870000005,11.03008747
9020,45.877991,7.5153989789999995,6.7636199,10.51533413
9021,45.883973,6.782773495,5.760449409,9.691728592
9022,45.888977,6.112396717,4.9416322710000005,8.939949036
9023,45.893982,5.169081688,4.139574528,8.125920296
9024,45.898987,4.42209053,3.653551817,7.575253963
9025,45.903992,3.79241538,3.351882458,7.2113356589999995
9026,45.908997,3.41892004,3.2465374469999997,6.967126846
9027,45.914002,3.318363667,3.241749048,6.797138691000001
9028,45.919983,3.438073635,3.3399114610000002,6.593631267999999
9029,45.924988,3.536235809,3.4668040280000003,6.619967937
9030,45.929932,3.596091032,3.6272156239999997,6.845022677999999
9031,45.934998,3.7158010010000004,3.711012602,7.297526836
9032,45.940003,3.821146011,3.6918590069999997,7.76679039
9033,45.945008,3.90254879,3.538630009,8.228871346
9034,45.949829,3.97676897,3.095702887,8.767566681
9035,45.954834,3.967192173,2.9089550969999998,8.935160637000001
9036,45.960999,3.9743747710000004,2.729389906,9.179368972999999
9037,45.966004,3.924096584,2.573766708,9.600749016
9038,45.971009,3.8977603910000003,2.439691544,10.08198357
9039,45.976013,3.904942989,2.358288765,10.34774017
9040,45.981018,4.007893562,2.293645144,10.49857426
9041,45.985962,4.151545525,2.264914751,10.59194851
9042,45.990967,4.288015366000001,2.286462545,10.7188406
9043,45.995972,4.42448473,2.360682964,10.79066753
9044,46.002014,4.57531929,2.53067112,10.7332058
9045,46.007019,4.704606533,2.734178305,10.47463226
9046,46.011902,4.838681698,2.978386879,10.08437729
9047,46.016968,5.011064053,3.34230566,9.758766174
9048,46.021973,5.20020628,3.6966474060000003,9.440337181
9049,46.026978,5.343858242,4.0509891510000005,9.22725296
9050,46.031982,5.442020416,4.446032524,9.299078941
9051,46.037964,5.5042696,4.893748283,9.418789863999999
9052,46.042969,5.5042696,5.269638062,9.469067574
9053,46.047974,5.525817394,5.559336185,9.555258751
9054,46.052979,5.595249176,5.91128397,9.672574997
9055,46.057983,5.657498837,6.16506958,9.639056206000001
9056,46.062988,5.61919117,6.268020152999999,9.749189377
9057,46.067993,5.516240597,6.2632317539999995,9.674968718999999
9058,46.072998,5.291185856,6.117185116,9.3685112
9059,46.078003,4.994304657,5.8753709789999995,8.887276649
9060,46.082825,5.106832027,5.609614372,8.583212852
9061,46.088013,5.803544998,5.659893036000001,8.001421928
9062,46.092834,4.587290287,5.46596241,7.319074631
9063,46.097961,3.526659012,5.171475887,6.9838862420000005
9064,46.102966,2.9113492969999997,4.774038315,6.641515732
9065,46.107971,2.9999346730000003,4.42448473,6.517016888
9066,46.112793,2.844311714,3.931279182,6.6798229220000005
9067,46.117981,2.49236393,3.6343982219999997,6.912060261000001
9068,46.122986,2.197877169,3.287238836,7.007828236
9069,46.127991,2.00873518,3.16034627,7.13232708
9070,46.132995,1.884236693,3.1316158769999998,7.307103634
9071,46.138,1.778891921,3.0765492919999997,7.5153989789999995
9072,46.143005,1.723825216,3.019088268,7.759607792000001
9073,46.148987,1.786074519,3.019088268,8.130708693999999
9074,46.153991,2.001552582,3.069366693,8.38928318
9075,46.158996,2.401384354,3.2393548489999997,8.647856712000001
9076,46.164001,2.7437551019999997,3.4117374419999997,8.798690796
9077,46.169983,3.0789434910000004,3.646369219,8.920795441000001
9078,46.175964,3.3016040330000003,3.706224203,8.930372238
9079,46.180908,3.4428620339999996,3.701435804,8.906430244
9080,46.185974,3.5625722410000003,3.574543238,8.851364136
9081,46.192016,3.543418407,3.3399114610000002,8.664615631
9082,46.19696,3.4452562330000003,3.138798475,8.532935143
9083,46.201965,3.3399114610000002,2.9975404739999996,8.355764388999999
9084,46.20697,3.1938650610000003,2.8945899010000002,8.221688271
9085,46.211975,3.0238766669999997,2.8538885119999997,8.032546997
9086,46.21698,2.9400796889999996,2.8251581189999997,7.903259754
9087,46.221984,2.954444885,2.851494312,7.8386163710000005
9088,46.226989,3.01190567,2.920926094,7.747636795
9089,46.231994,3.143586874,3.0526070589999996,7.5944075579999994
9090,46.236999,3.2752678389999996,3.1914708610000004,7.39808321
9091,46.242004,3.430891037,3.371036053,7.223306656
9092,46.247985,3.5194764139999997,3.660734415,6.780379295
9093,46.25299,3.4931402210000004,3.787626982,6.710947514
9094,46.258972,3.600879431,3.878606796,7.117961884
9095,46.263977,3.7732617860000004,3.988739967,7.649474621
9096,46.268981,3.900154591,4.103661537,8.027758598
9097,46.273986,3.983951569,4.2066125869999995,8.250418663
9098,46.278991,3.878606796,4.249708176,8.281543732000001
9099,46.283996,3.672705412,4.216189384,8.322244644
9100,46.289001,3.402160645,4.108449936,8.269572258
9101,46.294006,3.112462282,3.931279182,8.180987358
9102,46.299987,2.889801502,3.79480958,8.236053467
9103,46.304931,2.7485435010000003,3.708618402,8.300697327
9104,46.309997,2.616862535,3.598485231,8.35097599
9105,46.315978,2.48996973,3.579331636,8.441955566
9106,46.320983,2.432508945,3.6272156239999997,8.568847656
9107,46.325988,2.410961151,3.703830004,8.607154846
9108,46.33197,2.449268341,3.8043866160000004,8.714894295
9109,46.336974,2.578555346,3.936067581,8.803479195
9110,46.341979,2.813186884,4.1156325339999995,9.026140213
9111,46.346984,3.174711466,4.378994942,8.906430244
9112,46.351989,3.315969467,4.493916512,8.815450667999999
9113,46.356994,3.378218651,4.5370121,8.877699852000001
9114,46.361999,3.3901896480000002,4.527435303,8.908824921
9115,46.367004,3.323152065,4.474762917,8.973467827
9116,46.372008,3.179499865,4.362235546,8.894459723999999
9117,46.377013,2.79163909,4.19464159,8.760383606
9118,46.382018,2.4971523280000003,3.983951569,8.712499618999999
9119,46.386962,2.23139596,3.79241538,8.726864815
9120,46.391967,2.035071373,3.632004023,8.738836288
9121,46.396789,1.910573006,3.488351822,8.753201485
9122,46.403014,1.7884687190000002,3.34469986,8.81066227
9123,46.408019,1.716642618,3.347094059,8.841787338
9124,46.412963,1.6950948240000001,3.371036053,8.853757858
9125,46.417785,1.740584612,3.447650433,8.846575737
9126,46.42279,1.8148049119999998,3.6104562280000003,8.817844391
9127,46.427978,1.8650830980000002,3.701435804,8.748413086000001
9128,46.433959,1.8650830980000002,3.8331170080000003,8.595184326
9129,46.438964,1.824381709,3.8929719919999997,8.487444878
9130,46.443969,1.7764976019999998,3.9073371889999997,8.370129585
9131,46.448974,1.7357962130000002,3.9145197869999997,8.310274124
9132,46.455016,1.7501614090000002,3.94085598,8.348581314
9133,46.45996,1.740584612,3.94085598,8.29830265
9134,46.464904,1.675941229,3.960009575,8.257601738
9135,46.46997,1.5442601440000001,3.952826977,8.173804282999999
9136,46.474975,1.434126854,3.921702385,8.121131897
9137,46.479979,1.280897856,3.854664803,8.032546997
9138,46.484923,1.247379065,3.8307228089999996,8.025363922
9139,46.489989,1.280897856,3.8307228089999996,8.0229702
9140,46.494933,1.3455413580000002,3.8857893939999997,7.999027729
9141,46.499999,1.3694833519999998,3.960009575,7.9535379410000004
9142,46.505004,1.391031146,3.986345768,7.987056732
9143,46.510009,1.383848548,4.019864559,8.094796181
9144,46.515013,1.383848548,4.041412353999999,8.279149055
9145,46.520018,1.436521053,4.062960148,8.518569946
9146,46.524962,1.436521053,4.106055737,8.690952301
9147,46.529967,1.4389152530000002,4.156333923,8.813055992
9148,46.53601,1.52510643,4.240131378,8.870517731
9149,46.541014,1.508347034,4.304774761,8.77235508
9150,46.546019,1.405396342,4.3143515589999994,8.645462036
9151,46.550963,1.319205165,4.295197964,8.54251194
9152,46.555968,1.1923124790000001,4.223371983,8.396465302000001
9153,46.560973,1.084573388,4.156333923,8.202534676
9154,46.565978,1.065419793,4.089296341,8.018181801
9155,46.570983,1.079784989,4.118026733,7.793126582999999
9156,46.575987,0.9744400978,4.213795185,7.505822182
9157,46.580992,0.8667010069,4.299986362,7.275979042
9158,46.585997,0.7493851184999999,4.345476151000001,7.127538681
9159,46.591002,0.7398083209999999,4.367023945,7.055712223
9160,46.596007,0.8140285611,4.402936935,7.177816868
9161,46.601988,0.9241618514,4.446032524,7.527369976
9162,46.606993,0.9193734526999999,4.436455727,7.934384346
9163,46.611937,0.940921247,4.407725333999999,8.305485725
9164,46.617003,0.9600749016,4.378994942,8.59278965
9165,46.621949,0.9528923035,4.30956316,8.681375504
9166,46.627992,0.9097966552,4.273650169,8.755595207
9167,46.632997,0.8499416112999999,4.230554581,8.779537201
9168,46.638002,0.8427590131999999,4.237737179,8.74601841
9169,46.643006,0.8236053586,4.252102375,8.712499618999999
9170,46.648988,0.8331822157,4.316745758,8.626308441
9171,46.653932,0.8427590131999999,4.388571739,8.540117264
9172,46.658998,0.8882488012,4.477157116,8.489839554
9173,46.664002,0.8714894056,4.4963107110000005,8.489839554
9174,46.669007,0.9289502501000001,4.570530891000001,8.408436775
9175,46.674012,1.012747288,4.623203278,8.293514252000001
9176,46.679017,1.022324085,4.654327868999999,8.28633213
9177,46.683961,1.086967587,4.707000732,8.271966934
9178,46.688966,1.094150186,4.738125323999999,8.233659744
9179,46.693971,1.027112484,4.805162907,8.238448143
9180,46.698914,0.9696516990999999,4.800374508,8.300697327
9181,46.703919,0.9337386489,4.771644115,8.384494781
9182,46.708985,0.8164227605,4.707000732,8.43956089
9183,46.71399,0.6823474765,4.6255974769999995,8.444349289
9184,46.718995,0.538695395,4.546588898,8.418013573
9185,46.724,0.4548983276,4.467580318,8.365341187
9186,46.729005,0.4501099288,4.436455727,8.240841866
9187,46.73401,0.44292730090000004,4.458003521,8.137891769
9188,46.739014,0.4381389022,4.5106759069999995,8.027758598
9189,46.743958,0.4118026793,4.5370121,7.8960771560000005
9190,46.748963,0.3734954596,4.563348293,7.752425194
9191,46.753968,0.383072257,4.570530891000001,7.649474621
9192,46.758973,0.323217243,4.584896088,7.541735172
9193,46.765015,0.2274491638,4.551377296,7.522581577
9194,46.769959,0.2130839527,4.49870491,7.54891777
9195,46.774964,0.2202665508,4.474762917,7.58722496
9196,46.779969,0.2609679997,4.474762917,7.711723804
9197,46.784974,0.2466027737,4.517858505,7.821856976
9198,46.789979,0.22266076510000002,4.529829502,7.941566944
9199,46.794984,0.1843535304,4.515464306,8.032546997
9200,46.799988,0.1149216816,4.465186119,8.157045364
9201,46.804993,0.107739076,4.441244125,8.238448143
9202,46.809998,0.1508347094,4.441244125,8.307879448
9203,46.815003,0.1915361285,4.469974518,8.341399192999999
9204,46.820984,0.2346317619,4.580107689,8.379706383
9205,46.825989,0.23942017559999998,4.616020679,8.382100105
9206,46.830994,0.2011129409,4.639962673,8.365341187
