"Time (s)","X (rad/s)","Y (rad/s)","Z (rad/s)"
1.255900005E-2,5.842615962E-1,-8.240456581E-1,-9.416452050E-2
2.260600007E-2,4.098908603E-1,-1.011263490E0,-8.069292456E-2
3.265299997E-2,2.267459482E-1,-1.140499234E0,-8.571932465E-2
4.269999999E-2,4.627978057E-2,-1.216680050E0,-1.019840464E-1
5.274700001E-2,-1.131573766E-1,-1.246490121E0,-1.322794557E-1
6.279300002E-2,-2.355301529E-1,-1.203845382E0,-1.698886156E-1
7.284000004E-2,-2.937697768E-1,-1.110962868E0,-1.967354119E-1
8.288700006E-2,-2.837320566E-1,-9.337765574E-1,-1.916109622E-1
9.293400007E-2,-2.464581877E-1,-7.256251574E-1,-1.699826717E-1
1.029810000E-1,-1.991995871E-1,-6.180156469E-1,-1.381339282E-1
1.130282501E-1,-1.481781006E-1,-5.571979284E-1,-1.324509233E-1
1.230752501E-1,-1.048743129E-1,-5.317251086E-1,-1.514123678E-1
1.331222500E-1,-9.875256568E-2,-5.761606097E-1,-1.806875020E-1
1.431692500E-1,-1.134047434E-1,-6.553938985E-1,-1.938925087E-1
1.532162500E-1,-1.080648974E-1,-7.428469062E-1,-1.982424855E-1
1.632632500E-1,-5.798467994E-2,-8.263244629E-1,-1.817974597E-1
1.733102500E-1,2.716728859E-2,-9.090098739E-1,-1.528256685E-1
1.833572501E-1,1.390472203E-1,-9.099513292E-1,-1.206823736E-1
1.934042500E-1,2.204776853E-1,-8.726028204E-1,-1.194699854E-1
2.034512500E-1,2.537637353E-1,-8.249466419E-1,-1.533238292E-1
2.134982500E-1,2.317137122E-1,-8.126835227E-1,-2.158295810E-1
2.235442500E-1,1.478571743E-1,-8.795837164E-1,-3.193924725E-1
2.335912500E-1,4.674115032E-2,-9.510338902E-1,-4.246082604E-1
2.436382500E-1,3.620115668E-2,-8.995667100E-1,-5.050831437E-1
2.536852501E-1,5.457803234E-2,-8.564253449E-1,-5.427370071E-1
2.637322500E-1,9.459815919E-2,-8.916152716E-1,-5.243167281E-1
2.737792500E-1,1.266314983E-1,-8.796851635E-1,-4.593684673E-1
2.838262500E-1,2.001246363E-1,-7.114660740E-1,-4.137064219E-1
2.938732500E-1,3.213344812E-1,-5.484947562E-1,-4.451442361E-1
3.039202500E-1,4.033995271E-1,-6.537175775E-1,-5.061519742E-1
3.139672501E-1,4.129887521E-1,-7.978177071E-1,-5.828087926E-1
3.240142501E-1,3.912951946E-1,-8.877375126E-1,-6.531969309E-1
3.340612500E-1,3.821087182E-1,-9.569350481E-1,-6.847389936E-1
3.441082500E-1,3.599371016E-1,-1.028732538E0,-6.585885882E-1
3.541552500E-1,2.990627289E-1,-9.700109959E-1,-5.638423562E-1
3.642022500E-1,2.610301077E-1,-8.133425713E-1,-4.708378315E-1
3.742492500E-1,2.494167536E-1,-6.668759584E-1,-4.384622872E-1
3.842952501E-1,2.668708563E-1,-5.623103976E-1,-4.898317456E-1
3.943422500E-1,3.070825636E-1,-5.688603520E-1,-5.953874588E-1
4.043892500E-1,3.256647587E-1,-7.315621972E-1,-6.969953179E-1
4.144362500E-1,3.791307211E-1,-8.801980019E-1,-7.993639112E-1
4.244832500E-1,4.712838233E-1,-1.026989698E0,-8.843647838E-1
4.345302500E-1,5.673068762E-1,-1.139135838E0,-9.901705384E-1
4.445772500E-1,6.736998558E-1,-1.120908976E0,-1.069127679E0
4.546242501E-1,7.935272455E-1,-1.013208866E0,-1.090821981E0
4.646712500E-1,8.339953423E-1,-9.140947461E-1,-1.088920474E0
4.747182500E-1,7.349599600E-1,-7.124463916E-1,-1.018169165E0
4.847652500E-1,5.222652555E-1,-3.369111121E-1,-8.344891071E-1
4.948122500E-1,2.944328189E-1,-6.897319108E-2,-6.194971800E-1
5.048592500E-1,9.679723531E-2,-3.742519766E-3,-3.384574652E-1
5.149062501E-1,1.319218986E-2,-3.141568229E-2,-6.563354284E-2
5.249532500E-1,1.381004322E-2,-4.488435015E-2,1.461617947E-1
5.349992500E-1,4.023700953E-2,-3.343175352E-2,2.932048440E-1
5.450462500E-1,3.772671148E-2,-7.296021562E-3,4.044474661E-1
5.550932500E-1,3.184374049E-2,-2.570212446E-2,6.154748201E-1
5.651402500E-1,1.622270420E-2,-1.106031612E-1,8.892360926E-1
5.751872500E-1,-4.884976894E-2,-2.631569505E-1,9.969404936E-1
5.852342501E-1,-1.787222922E-1,-2.737874985E-1,8.990989327E-1
5.952812500E-1,-3.710680604E-1,-8.666121960E-2,6.699997783E-1
6.053282500E-1,-5.686051250E-1,9.852381796E-2,4.308417737E-1
6.153752500E-1,-7.168569565E-1,2.181558013E-1,2.957177162E-1
6.254222500E-1,-8.040326238E-1,2.804125287E-2,2.499502450E-1
6.354692500E-1,-9.088970423E-1,-2.849617302E-1,3.611979783E-1
6.455162500E-1,-1.107038140E0,-5.934697986E-1,6.226612926E-1
6.555632501E-1,-1.349836588E0,-7.102134824E-1,9.940209985E-1
6.656102500E-1,-1.542655110E0,-7.592079639E-1,1.306300879E0
6.756572500E-1,-1.606574416E0,-7.757678032E-1,1.512925386E0
6.857042500E-1,-1.589211106E0,-6.048130989E-1,1.614852548E0
6.957502500E-1,-1.484528065E0,-3.068060875E-1,1.616343617E0
7.057972500E-1,-1.320523620E0,-5.360764265E-2,1.582645893E0
7.158442501E-1,-1.167321444E0,1.231342554E-1,1.600276470E0
7.258912501E-1,-1.100883603E0,3.164342344E-1,1.672608733E0
7.359382500E-1,-1.100843191E0,3.753282130E-1,1.732286334E0
7.459852500E-1,-1.113364816E0,2.893619239E-1,1.735407829E0
7.560322500E-1,-1.121674776E0,2.014953792E-1,1.679467320E0
7.660792500E-1,-1.117258191E0,1.551545113E-1,1.632942915E0
7.761262500E-1,-1.124180198E0,9.126119316E-2,1.599349737E0
7.861732501E-1,-1.118421674E0,1.308501363E-1,1.536314607E0
7.962202500E-1,-1.091846704E0,2.205265909E-1,1.412322283E0
8.062672500E-1,-1.016390562E0,3.576679528E-1,1.222260714E0
8.163142500E-1,-9.390931129E-1,4.483893812E-1,9.884634018E-1
8.263612500E-1,-8.349363804E-1,4.744457304E-1,7.581369877E-1
8.364082500E-1,-6.900017262E-1,4.196534157E-1,5.704923868E-1
8.464542500E-1,-5.200350285E-1,1.934399754E-1,4.069492221E-1
8.565012501E-1,-3.815659285E-1,-3.463244811E-2,2.548549473E-1
8.665482500E-1,-4.597606063E-1,-1.565311849E-1,2.047779262E-1
8.765952500E-1,-7.332893610E-1,-1.096701548E-1,4.154172838E-1
8.866422500E-1,-1.091297865E0,-7.851862907E-2,6.459357142E-1
8.966892500E-1,-1.294386387E0,-1.136265695E-1,6.820412874E-1
9.067362500E-1,-1.218451381E0,-1.897783279E-1,6.408003569E-1
9.167832501E-1,-1.058500409E0,-4.549923241E-1,5.904326439E-1
9.268302501E-1,-9.539167285E-1,-7.132787704E-1,5.633256435E-1
9.368772500E-1,-1.028279066E0,-9.758828878E-1,5.500822067E-1
9.469242500E-1,-1.268360615E0,-1.234964252E0,6.507145166E-1
9.569712500E-1,-1.623343349E0,-1.478199601E0,9.241902828E-1
9.670182500E-1,-2.024011374E0,-1.759009123E0,1.229789734E0
9.770652500E-1,-2.291636944E0,-2.194672108E0,1.443095565E0
9.871122501E-1,-2.402724743E0,-2.788312674E0,1.524805069E0
9.971592500E-1,-2.504799366E0,-3.364239693E0,1.580922365E0
1.007205250E0,-2.759428263E0,-4.018988609E0,1.720758080E0
1.017252250E0,-3.163163424E0,-4.640012264E0,1.906326413E0
1.027299250E0,-3.604089499E0,-5.205287933E0,2.045169830E0
1.037346250E0,-3.822368383E0,-5.637856483E0,1.987566710E0
1.047393250E0,-3.779741764E0,-5.756037712E0,1.811632752E0
1.057440250E0,-3.688058138E0,-5.949271679E0,1.535161734E0
1.067487250E0,-3.438449860E0,-5.654687881E0,1.408663392E0
1.077534250E0,-3.211105585E0,-5.091388702E0,1.495517612E0
1.087581250E0,-3.113844156E0,-4.408676624E0,1.665213466E0
1.097628250E0,-3.131156206E0,-3.762271643E0,1.699884534E0
1.107674625E0,-3.184024096E0,-3.195217371E0,1.691171169E0
1.117721625E0,-3.189238071E0,-2.662281275E0,1.708044410E0
1.127768625E0,-3.132146120E0,-2.325397730E0,1.637924194E0
1.137815625E0,-3.008910894E0,-2.070455074E0,1.512527585E0
1.147862625E0,-2.757277727E0,-1.884434342E0,1.334215641E0
1.157909625E0,-2.516267538E0,-1.886194468E0,1.197838783E0
1.167956625E0,-2.385741711E0,-2.031773329E0,1.083299994E0
1.178002625E0,-2.313159227E0,-2.030882120E0,9.277917147E-1
1.188049625E0,-2.324341059E0,-1.925125360E0,6.113098860E-1
1.198096625E0,-2.478537798E0,-1.615167856E0,1.373202503E-1
1.208143625E0,-2.752501965E0,-1.115362287E0,-6.100181341E-1
1.218190625E0,-2.756698370E0,-1.452379942E0,-7.685930133E-1
1.228237625E0,-2.525639772E0,-1.458920479E0,-4.579685628E-1
1.238284625E0,-2.206393242E0,-1.504657984E0,-5.035696030E-1
1.248331625E0,-1.742541552E0,-1.317860365E0,-7.333689928E-1
1.258378625E0,-1.250145435E0,-1.260218978E0,-8.636594415E-1
1.268425625E0,-7.496583462E-1,-1.445329547E0,-6.392740011E-1
1.278472625E0,-3.074961305E-1,-1.825202465E0,-2.722688913E-1
1.288519625E0,-1.064047869E-2,-2.022182465E0,-1.694816165E-2
1.298566625E0,7.919432223E-2,-1.831232667E0,6.499875337E-2
1.308613625E0,2.931593359E-1,-1.349774957E0,7.808899134E-2
1.318660625E0,4.296172857E-1,-5.341906548E-1,-1.522716433E-1
1.328707625E0,1.778596044E-1,3.875559866E-1,-5.937500000E-1
1.338754625E0,-1.198687032E-1,9.368574023E-1,-8.584461212E-1
1.348801625E0,-4.495981336E-1,1.126449943E0,-9.353721142E-1
1.358847625E0,-6.399240494E-1,1.000221968E0,-8.055588007E-1
1.368894625E0,-7.353547215E-1,5.588107109E-1,-5.593026876E-1
1.378941625E0,-6.824316978E-1,2.472965419E-2,-3.583932817E-1
1.388988625E0,-4.475840330E-1,-3.022977114E-1,-1.809228808E-1
1.399035625E0,-1.338151395E-1,-5.392263532E-1,5.254670233E-2
1.409082625E0,1.516422629E-2,-6.565937400E-1,2.183937132E-1
1.419129625E0,-4.767928645E-2,-5.219813585E-1,2.147585303E-1
1.429176625E0,-3.417750895E-1,-6.087900698E-2,8.750870824E-2
1.439223625E0,-6.577140093E-1,4.286375046E-1,-1.017218456E-1
1.449270625E0,-7.345461845E-1,7.695074677E-1,-2.574784160E-1
1.459317625E0,-6.862646937E-1,8.574214578E-1,-3.293114007E-1
1.469364625E0,-6.157023311E-1,7.752544284E-1,-2.890902162E-1
1.479411625E0,-4.559821486E-1,5.389961600E-1,-1.832215935E-1
1.489458625E0,-6.326523423E-2,1.008893996E-1,-1.116507277E-1
1.499505625E0,3.831700087E-1,-4.121071398E-1,-1.581668109E-1
1.509552625E0,3.917083442E-1,-7.265716195E-1,-3.451960683E-1
1.519599625E0,3.983266354E-1,-1.041795850E0,-5.438041091E-1
1.529646625E0,5.220078230E-1,-1.073146582E0,-7.600301504E-1
1.539693625E0,4.713075161E-1,-8.600764275E-1,-9.499781728E-1
1.549740625E0,3.876182139E-1,-5.464354157E-1,-1.070758939E0
1.559786625E0,3.298837245E-1,-2.882057726E-1,-1.163520813E0
1.569833625E0,2.796088159E-1,-1.011538729E-1,-1.216059089E0
1.579880625E0,1.165258959E-1,1.553366482E-1,-1.219024181E0
1.589927625E0,1.754177064E-1,2.198461294E-1,-1.056186318E0
1.599974625E0,2.220646739E-1,1.654414833E-1,-8.465996981E-1
1.610021625E0,2.136221826E-1,1.085086912E-1,-7.598565221E-1
1.620068625E0,2.842463553E-1,1.030610316E-2,-7.453824878E-1
1.630115625E0,3.529377878E-1,-1.039275229E-1,-6.852155328E-1
1.640162625E0,4.086318016E-1,-1.682041287E-1,-6.043387055E-1
1.650209625E0,4.926044643E-1,-9.396106750E-2,-5.638994575E-1
1.660256625E0,5.066822171E-1,6.727869064E-2,-5.349903107E-1
1.670303625E0,5.086324215E-1,2.000804096E-1,-3.432983458E-1
1.680350625E0,2.481916696E-1,1.273757368E-1,1.712821238E-2
1.690397625E0,-1.911193319E-2,1.852431567E-3,2.326016426E-1
1.700444625E0,-5.517287645E-3,-1.682020128E-1,3.216617107E-1
1.710491625E0,-1.696236730E-1,-1.579999775E-1,2.765190005E-1
1.720538625E0,-2.878046036E-1,-5.473480374E-2,2.062707692E-1
1.730585625E0,-2.982220948E-1,-4.713121429E-2,2.345596552E-1
1.740632625E0,-3.366585970E-1,-1.768256724E-1,2.549816370E-1
1.750679625E0,-2.648531199E-1,-2.358786166E-1,3.610582650E-1
1.760726625E0,-1.536776274E-1,-2.363229990E-1,5.413041711E-1
1.770773625E0,-7.881323993E-2,-7.986974716E-2,7.455824614E-1
1.780820625E0,1.359466650E-2,2.251151055E-1,1.025384665E0
1.790866625E0,7.965411246E-2,5.822186470E-1,1.494781971E0
1.800913625E0,7.122164220E-2,1.038606644E0,1.827037334E0
1.810960625E0,-2.643834054E-2,1.333211064E0,2.024880171E0
1.821007625E0,-5.068898201E-2,1.497294545E0,1.735319138E0
1.831054625E0,-8.360968903E-3,1.608649373E0,1.376545191E0
1.841101625E0,-7.634346932E-2,1.411230683E0,1.243347287E0
1.851148625E0,-2.256530672E-1,8.970627189E-1,1.130354881E0
1.861195625E0,-2.158829868E-1,2.977301180E-1,8.482362032E-1
1.871242625E0,-1.819867268E-2,6.091728434E-2,6.025726795E-1
1.881289625E0,8.652805537E-2,-6.079905480E-2,4.167224169E-1
1.891336625E0,8.426996320E-2,-2.868468463E-1,3.234055042E-1
1.901383625E0,5.705400184E-2,-5.334592462E-1,2.635805011E-1
1.911430625E0,4.862909019E-2,-7.479691505E-1,2.270006537E-1
1.921477625E0,8.010765165E-2,-8.985962868E-1,2.060651630E-1
1.931524625E0,1.452863812E-1,-9.332298636E-1,1.979212165E-1
1.941571625E0,2.576126456E-1,-5.984785557E-1,3.878728151E-1
1.951618625E0,4.277505279E-1,-1.997102425E-2,6.775512099E-1
1.961665625E0,3.921475410E-1,1.761409789E-1,8.795851469E-1
1.971712625E0,2.369584590E-1,1.781162471E-1,1.128969669E0
1.981759625E0,9.177193791E-2,4.766529500E-1,1.527243733E0
1.991806625E0,-9.955701232E-2,6.778553724E-1,1.897773862E0
2.001853625E0,-4.852200747E-1,6.753686666E-1,1.966655493E0
2.011900625E0,-8.567875028E-1,7.844455838E-1,1.713447928E0
2.021947625E0,-1.050322771E0,1.224997520E0,1.523017287E0
2.031993625E0,-1.204948783E0,1.666463137E0,1.638761401E0
2.042040625E0,-1.550700307E0,1.661905169E0,1.350589395E0
2.052087625E0,-1.689924240E0,1.616695166E0,4.505903721E-1
2.062134625E0,-1.251705766E0,1.669505954E0,-1.603073478E-1
2.072181625E0,-6.287621856E-1,1.190866590E0,-1.089243218E-1
2.082228625E0,-2.152647674E-1,3.687557280E-1,4.475949705E-2
2.092275625E0,-1.352579426E-2,-1.314761937E-1,9.746387601E-3
2.102322625E0,1.375054419E-1,-4.439058304E-1,-5.674510449E-2
2.112370875E0,2.774207294E-1,-7.922201157E-1,-1.345221847E-1
2.122417875E0,3.465332389E-1,-9.771296382E-1,-1.812752634E-1
2.132464875E0,3.421001434E-1,-9.261343479E-1,-2.521014810E-1
2.142511875E0,2.689016759E-1,-7.290034890E-1,-2.991339862E-1
2.152558875E0,2.516611516E-1,-3.923679590E-1,-2.163264304E-1
2.162605875E0,3.057935834E-1,9.959843010E-4,-9.178107604E-3
2.172652875E0,2.567794323E-1,2.816801369E-1,2.298621684E-1
2.182699875E0,-6.539446861E-2,2.371042073E-1,2.600542605E-1
2.192746875E0,-2.282414436E-1,2.673822343E-1,1.672659814E-1
2.202793875E0,-3.419040740E-1,3.693482876E-1,8.069141954E-2
2.212840875E0,-4.533195496E-1,4.138001502E-1,2.862262167E-2
2.222887875E0,-5.975969434E-1,4.767738283E-1,7.173517346E-2
2.232934875E0,-6.452894211E-1,4.696410894E-1,1.515240222E-1
2.242981875E0,-5.999234319E-1,3.700279891E-1,2.455190867E-1
2.253028875E0,-4.694833457E-1,1.789709181E-1,3.353714645E-1
2.263075875E0,-2.717795372E-1,5.054377392E-2,3.888950050E-1
2.273122875E0,-1.170421466E-1,8.083483577E-2,4.965074658E-1
2.283169875E0,-6.019478664E-2,2.076575905E-1,6.562318802E-1
2.293215875E0,-4.854345322E-2,3.121139407E-1,8.268390298E-1
2.303262875E0,-8.487915248E-2,2.808242440E-1,9.870322347E-1
2.313309875E0,-1.718601286E-1,2.282310873E-1,1.111930490E0
2.323356875E0,-3.213822842E-1,2.856547236E-1,1.217360854E0
2.333403875E0,-5.257831216E-1,3.892695308E-1,1.365914345E0
2.343450875E0,-7.298043966E-1,5.569925308E-1,1.519770265E0
2.353497875E0,-8.699638844E-1,7.326732874E-1,1.661727071E0
2.363544875E0,-9.100044370E-1,7.746173739E-1,1.763812900E0
2.373591875E0,-7.490762472E-1,5.522679687E-1,1.773494244E0
2.383638875E0,-6.179496050E-1,3.876232207E-1,1.866807222E0
2.393685875E0,-4.700450301E-1,2.579544187E-1,1.968820930E0
2.403732875E0,-3.316517174E-1,1.435620040E-1,2.049102306E0
2.413779875E0,-3.346349895E-1,9.097283334E-2,2.119875908E0
2.423826875E0,-4.073975682E-1,8.926009387E-2,2.167262077E0
2.433873875E0,-5.311943293E-1,1.460314989E-1,2.184751987E0
2.443920875E0,-6.580698490E-1,2.183535993E-1,2.167887688E0
2.453967875E0,-8.891019821E-1,3.101935089E-1,2.131908178E0
2.464014875E0,-1.109467030E0,3.183342218E-1,2.106257200E0
2.474061875E0,-1.154566050E0,4.770104289E-1,2.155557871E0
2.484108875E0,-1.122899890E0,8.576700687E-1,2.226052284E0
2.494155875E0,-1.012417912E0,1.170907140E0,2.215406179E0
2.504202875E0,-7.263342142E-1,1.027390599E0,2.276259899E0
2.514249875E0,-5.146198273E-1,6.703595519E-1,2.408483982E0
2.524296875E0,-4.357185066E-1,1.950315982E-1,2.589634418E0
2.534343875E0,-6.423203945E-1,3.253467083E-1,2.671581030E0
2.544390875E0,-8.172102571E-1,6.147946715E-1,2.630088806E0
2.554437875E0,-7.452567220E-1,5.125671029E-1,2.598355770E0
2.564484875E0,-6.371253133E-1,3.271196485E-1,2.641763926E0
2.574531875E0,-5.681334734E-1,2.199934572E-1,2.756684780E0
2.584578875E0,-6.162222624E-1,4.377674758E-1,2.899973869E0
2.594625875E0,-8.020927906E-1,1.064458251E0,3.091970205E0
2.604671875E0,-8.952999711E-1,1.466122627E0,3.246580839E0
2.614718875E0,-9.550455809E-1,1.551788211E0,3.321075439E0
2.624765875E0,-1.000635624E0,1.409912825E0,3.252517462E0
2.634812875E0,-9.360311627E-1,1.083432436E0,3.059795856E0
2.644859875E0,-7.605727315E-1,7.263812423E-1,2.805978775E0
2.654906875E0,-6.548510790E-1,6.650017500E-1,2.609725237E0
2.664953875E0,-8.072273731E-1,1.050758719E0,2.455385685E0
2.675000875E0,-8.993221521E-1,1.468241453E0,2.343137026E0
2.685047875E0,-9.323323965E-1,1.885964632E0,2.274652004E0
2.695094875E0,1.185037941E-1,1.809611440E0,2.464661121E0
2.705141875E0,1.607347250E0,1.514985919E0,1.269368172E0
2.715188875E0,1.247719765E0,1.259969592E0,-3.075163960E-1
2.725235875E0,-2.157885395E-2,6.045263410E-1,-8.232752681E-1
2.735282875E0,-8.153441548E-1,-5.500579253E-2,-8.109613657E-1
2.745329875E0,-7.336068749E-1,-5.447070599E-1,-4.684916139E-1
2.755376875E0,-1.473151594E-1,-9.041688442E-1,-1.816097647E-1
2.765423875E0,5.173256397E-1,-7.197969556E-1,-2.040395141E-1
2.775470875E0,7.427579761E-1,-3.132382929E-1,-3.067576289E-1
2.785517875E0,4.484652281E-1,-1.225864887E-1,-3.196067512E-1
2.795564875E0,3.662016988E-2,-2.120705694E-1,-2.153751850E-1
2.805611875E0,-1.148984060E-1,-2.745036781E-1,-1.422432661E-1
2.815658875E0,2.209379897E-2,-2.071914822E-1,-1.332127452E-1
2.825705875E0,1.049897373E-1,-7.660056651E-2,-2.779411711E-2
2.835752875E0,7.388641685E-2,6.284547597E-2,1.046233810E-4
2.845799875E0,1.316603739E-2,8.299724013E-2,1.132267527E-3
2.855846875E0,8.271679282E-3,5.675604194E-2,-1.084503345E-2
2.865893875E0,2.284210548E-2,1.980154961E-2,-2.220756933E-2
2.875940875E0,2.584135719E-2,-2.261488326E-2,-3.675641865E-2
2.885987875E0,1.287147962E-2,-4.430311546E-2,-4.740389064E-2
2.896034875E0,7.559610531E-4,-4.241892695E-2,-5.372650176E-2
2.906081875E0,1.391287893E-3,-3.144729510E-2,-5.272299051E-2
2.916128875E0,1.485516503E-2,-2.357898280E-2,-5.142256990E-2
2.926175875E0,1.983643323E-2,-1.592118293E-2,-5.354065821E-2
2.936221875E0,1.914108172E-2,-9.663288482E-3,-5.791863054E-2
2.946268875E0,1.103709824E-2,-5.026753061E-3,-6.312388927E-2
2.956315875E0,9.977959096E-3,-3.802763997E-3,-6.610397249E-2
2.966362875E0,1.433978043E-2,-1.672394946E-2,-6.812075526E-2
2.976409875E0,1.807033643E-2,-4.475425556E-2,-6.461310387E-2
2.986456875E0,2.610090002E-2,-7.337444276E-2,-6.019065529E-2
2.996503875E0,2.958724461E-2,-1.030734852E-1,-5.736850202E-2
3.006550875E0,2.901001461E-2,-1.206256673E-1,-4.906073585E-2
3.016597875E0,3.293178603E-2,-1.323076189E-1,-4.176367447E-2
3.026644875E0,3.169151768E-2,-1.378198266E-1,-3.917467594E-2
3.036691875E0,1.866519824E-2,-1.518469602E-1,-3.568407148E-2
3.046738875E0,7.476404309E-3,-1.571491361E-1,-3.426775709E-2
3.056785875E0,-7.135827560E-3,-1.553552449E-1,-2.868949994E-2
3.066832875E0,-1.694333926E-2,-1.459892541E-1,-1.928436756E-2
3.076879875E0,-2.767827362E-2,-1.320052594E-1,-1.102137752E-2
3.086926875E0,-3.222329170E-2,-1.142696217E-1,-5.195613485E-3
3.096973875E0,-3.439296782E-2,-8.192553371E-2,1.329397317E-3
3.107020875E0,-3.163240105E-2,-5.106902122E-2,7.335193455E-3
3.117066875E0,-2.898308448E-2,-1.257888786E-2,1.071261428E-2
3.127113875E0,-2.186902240E-2,2.615294605E-2,1.406200137E-2
3.137160875E0,-1.681993529E-2,5.373796821E-2,1.386865601E-2
3.147207875E0,-1.021232735E-2,6.963689625E-2,1.182714757E-2
3.157254875E0,-5.420501344E-3,7.119111717E-2,3.499176586E-3
3.167301875E0,5.589232780E-3,7.109325379E-2,-4.570538178E-3
3.177348875E0,8.511252701E-3,7.479478419E-2,-3.202472813E-3
3.187395875E0,2.120191045E-2,7.303091884E-2,-5.651751067E-3
3.197442875E0,2.630612440E-2,7.260667533E-2,-1.451147720E-3
3.207489875E0,3.530468419E-2,6.065473333E-2,1.464852598E-3
3.217536875E0,4.490990937E-2,4.585501552E-2,-1.243049279E-3
3.227583875E0,4.418082908E-2,3.130530566E-2,2.711238107E-3
3.237630875E0,3.993228823E-2,2.407056093E-2,3.501398023E-3
3.247677875E0,3.614113107E-2,2.854417451E-2,6.328199990E-3
3.257724875E0,3.066913597E-2,2.677503601E-2,1.155997999E-2
3.267771875E0,2.242117934E-2,2.299126051E-2,1.176276989E-2
3.277818875E0,1.443435997E-2,2.230975777E-2,1.275506429E-2
3.287865875E0,1.073925011E-2,1.836793497E-2,1.402674243E-2
3.297911875E0,8.328822441E-3,1.190976799E-2,1.170553174E-2
3.307958875E0,1.068882458E-2,3.966751043E-3,5.924420897E-3
3.318005875E0,1.212426834E-2,2.774986438E-3,4.526902921E-4
3.328052875E0,1.241171453E-2,3.941855859E-3,-4.626037087E-3
