"Time (s)","Acceleration x (m/s^2)","Acceleration y (m/s^2)","Acceleration z (m/s^2)"
0.000000000E0,-1.236066937E0,-5.217352390E0,-2.412246943E0
2.000052000E-3,-1.216903090E0,-5.382640362E0,-2.730845451E0
4.000260000E-3,-1.166598082E0,-5.564696789E0,-3.061421633E0
6.000729000E-3,-1.077965379E0,-5.775498867E0,-3.382415771E0
8.001562000E-3,-9.869371653E-1,-6.017442226E0,-3.701014280E0
1.000286400E-2,-9.294456840E-1,-6.271362782E0,-4.050754070E0
1.200468700E-2,-9.006999135E-1,-6.534865379E0,-4.424448967E0
1.400708300E-2,-8.671632409E-1,-6.810345650E0,-4.795748234E0
1.601010400E-2,-8.000898361E-1,-7.100198269E0,-5.138301373E0
1.801375000E-2,-7.138525844E-1,-7.409214973E0,-5.468877316E0
2.001796800E-2,-6.395927668E-1,-7.732604504E0,-5.816221714E0
2.202270800E-2,-5.940786600E-1,-8.060785294E0,-6.170752525E0
2.402791600E-2,-5.749148726E-1,-8.391361237E0,-6.518096924E0
2.603296800E-2,-5.605419874E-1,-8.731519699E0,-6.858254910E0
2.803765600E-2,-5.174233913E-1,-9.083654404E0,-7.186435699E0
3.004234300E-2,-4.096268415E-1,-9.445371628E0,-7.505034447E0
3.204723900E-2,-2.419433296E-1,-9.804693222E0,-7.797282696E0
3.405223900E-2,-5.509600788E-2,-1.016162014E1,-8.051203728E0
3.605411400E-2,1.293558478E-1,-1.051136017E1,-8.293147087E0
3.805598900E-2,3.209941387E-1,-1.084433174E1,-8.532694817E0
4.005802000E-2,5.581464767E-1,-1.115574360E1,-8.760265350E0
4.206041600E-2,8.144627213E-1,-1.145278263E1,-8.963880539E0
4.406322900E-2,1.032451272E0,-1.174263573E1,-9.126772881E0
4.606645800E-2,1.195343852E0,-1.200613880E1,-9.239360809E0
4.807010400E-2,1.307931304E0,-1.224089527E1,-9.318411827E0
5.007411400E-2,1.382191062E0,-1.245648861E1,-9.366321564E0
5.207843700E-2,1.420518756E0,-1.264812660E1,-9.366321564E0
5.408307300E-2,1.413332343E0,-1.281341457E1,-9.330389023E0
5.608796800E-2,1.358236313E0,-1.295235252E1,-9.287270546E0
5.809302000E-2,1.274394631E0,-1.306973076E1,-9.220196724E0
6.009817700E-2,1.173784494E0,-1.316794586E1,-9.102818489E0
6.210338500E-2,1.051615119E0,-1.324939156E1,-8.947112083E0
6.410807300E-2,9.198637605E-1,-1.331406975E1,-8.769846916E0
6.611187500E-2,7.641576529E-1,-1.336437511E1,-8.559044838E0
6.811531200E-2,5.797058344E-1,-1.340749359E1,-8.305124283E0
7.011875000E-2,4.072313607E-1,-1.344821644E1,-8.032039642E0
7.212218700E-2,2.419433296E-1,-1.348654461E1,-7.754164219E0
7.412562500E-2,5.988696218E-2,-1.351049900E1,-7.500243187E0
7.612906200E-2,-1.533106267E-1,-1.352008057E1,-7.284650326E0
7.813250000E-2,-3.808811009E-1,-1.350331211E1,-7.104989529E0
8.013593700E-2,-5.988696218E-1,-1.345779800E1,-6.939701557E0
8.213937500E-2,-8.120672107E-1,-1.339551640E1,-6.793577194E0
8.414281200E-2,-1.049219608E0,-1.333562946E1,-6.666616917E0
8.614625000E-2,-1.329490542E0,-1.327095127E1,-6.537261009E0
8.814968700E-2,-1.648089290E0,-1.318471432E1,-6.405509472E0
9.015312500E-2,-1.937942147E0,-1.308889484E1,-6.288131237E0
9.215656200E-2,-2.179885387E0,-1.299547100E1,-6.201893806E0
9.416000000E-2,-2.429015160E0,-1.289006996E1,-6.132425308E0
9.616343700E-2,-2.668563128E0,-1.275831890E1,-6.082119942E0
9.816687500E-2,-2.893738031E0,-1.260500813E1,-6.086911201E0
1.001703120E-1,-3.106935740E0,-1.243253326E1,-6.175543785E0
1.021737500E-1,-3.291387558E0,-1.225047684E1,-6.331249714E0
1.041771870E-1,-3.454280138E0,-1.206842136E1,-6.510910511E0
1.061806250E-1,-3.645918369E0,-1.188875961E1,-6.685780525E0
1.081840620E-1,-3.880675316E0,-1.171389008E1,-6.843882084E0
1.101875000E-1,-4.125013828E0,-1.154620647E1,-6.951678753E0
1.121909370E-1,-4.335816383E0,-1.139289570E1,-6.992402077E0
1.141943750E-1,-4.508290768E0,-1.125635338E1,-6.973237991E0
1.161978120E-1,-4.642437458E0,-1.112939358E1,-6.920537472E0
1.182012500E-1,-4.764606953E0,-1.100243282E1,-6.831904888E0
1.202046870E-1,-4.917917252E0,-1.086589050E1,-6.757645130E0
1.222081250E-1,-5.097578526E0,-1.070299816E1,-6.712131023E0
1.242115620E-1,-5.265261650E0,-1.052094173E1,-6.678594112E0
1.262150000E-1,-5.397013187E0,-1.033888531E1,-6.625893593E0
1.282184370E-1,-5.519182682E0,-1.014245605E1,-6.520492554E0
1.302218750E-1,-5.665306568E0,-9.929258347E0,-6.388741493E0
1.322253120E-1,-5.801848888E0,-9.711270332E0,-6.264176369E0
1.342287500E-1,-5.912041187E0,-9.495676994E0,-6.130029678E0
1.362321870E-1,-6.010255814E0,-9.265710831E0,-6.003069401E0
1.382356250E-1,-6.062956333E0,-9.035744667E0,-5.897668362E0
1.402390620E-1,-6.055769920E0,-8.815361023E0,-5.799453735E0
1.422425000E-1,-6.031815052E0,-8.614140511E0,-5.708425522E0
1.442459370E-1,-6.015046597E0,-8.424898148E0,-5.638956547E0
1.462493750E-1,-6.010255814E0,-8.252423286E0,-5.579069614E0
1.482528120E-1,-6.012650967E0,-8.106299400E0,-5.533555508E0
1.502562500E-1,-6.007860184E0,-7.991316319E0,-5.492832184E0
1.522596870E-1,-5.988696575E0,-7.905079365E0,-5.447318077E0
1.542631250E-1,-5.988696575E0,-7.849983215E0,-5.408990383E0
1.562665620E-1,-6.036605835E0,-7.830819130E0,-5.382640362E0
1.582700000E-1,-6.122843266E0,-7.854773998E0,-5.363476276E0
1.602734370E-1,-6.223453045E0,-7.929033756E0,-5.373058319E0
1.622768750E-1,-6.328854084E0,-8.048808098E0,-5.418572426E0
1.642803120E-1,-6.443837166E0,-8.209304810E0,-5.483250618E0
1.662837500E-1,-6.566006660E0,-8.415316582E0,-5.562301159E0
1.682871870E-1,-6.678594112E0,-8.669237137E0,-5.641352177E0
1.702906250E-1,-6.783995152E0,-8.973463058E0,-5.701239109E0
1.722940620E-1,-6.908560276E0,-9.316016197E0,-5.718007088E0
1.742975000E-1,-7.059475422E0,-9.708874702E0,-5.684470654E0
1.763009370E-1,-7.191226482E0,-1.012568760E1,-5.605419636E0
1.783043750E-1,-7.253509045E0,-1.055447865E1,-5.492832184E0
1.803078120E-1,-7.260695457E0,-1.098566437E1,-5.358685493E0
1.823112500E-1,-7.258299828E0,-1.141445541E1,-5.207770348E0
1.843146870E-1,-7.248718262E0,-1.183845520E1,-5.030504704E0
1.863181250E-1,-7.231949806E0,-1.226245499E1,-4.802934647E0
1.883215620E-1,-7.196017742E0,-1.267687225E1,-4.539432049E0
1.903250000E-1,-7.143317223E0,-1.305775356E1,-4.280720234E0
1.923284370E-1,-7.088221073E0,-1.338353825E1,-4.031590462E0
1.943318750E-1,-7.042706966E0,-1.365662289E1,-3.756110430E0
1.963353120E-1,-6.982820034E0,-1.387940311E1,-3.430325270E0
1.983387500E-1,-6.918141842E0,-1.405906391E1,-3.085376263E0
2.003421870E-1,-6.877418995E0,-1.418841934E1,-2.735636473E0
2.023456250E-1,-6.872627735E0,-1.424830627E1,-2.390687704E0
2.043490620E-1,-6.903769016E0,-1.424112034E1,-2.048134089E0
2.063525000E-1,-6.961260796E0,-1.417165089E1,-1.695998788E0
2.083559370E-1,-7.023542881E0,-1.402313137E1,-1.307931304E0
2.103593750E-1,-7.064266205E0,-1.378358364E1,-8.935135007E-1
2.123628120E-1,-7.100198269E0,-1.346498489E1,-4.695138037E-1
2.143662500E-1,-7.126548767E0,-1.307212639E1,-3.832765669E-2
2.163696870E-1,-7.114571095E0,-1.259063530E1,4.048358798E-1
2.183731250E-1,-7.040311337E0,-1.202051163E1,8.527903557E-1
2.203765620E-1,-6.898978233E0,-1.136175442E1,1.281581044E0
2.223800000E-1,-6.680989742E0,-1.063592434E1,1.662462115E0
2.243834370E-1,-6.405509472E0,-9.866975784E0,1.969083309E0
2.263868750E-1,-6.118052006E0,-9.088445663E0,2.194258451E0
2.283903120E-1,-5.859340668E0,-8.321892738E0,2.361941814E0
2.303937500E-1,-5.646142960E0,-7.576898575E0,2.510461569E0
2.323971870E-1,-5.478459358E0,-6.889396191E0,2.663772106E0
2.344006250E-1,-5.339521885E0,-6.261780739E0,2.836246490E0
2.364040620E-1,-5.212561131E0,-5.691657066E0,3.015907526E0
2.384075000E-1,-5.095182896E0,-5.171838284E0,3.197963953E0
2.404109370E-1,-4.980199814E0,-4.707115173E0,3.384811163E0
2.424143750E-1,-4.862821579E0,-4.295093060E0,3.569262981E0
2.444178120E-1,-4.731070042E0,-3.938166618E0,3.751319408E0
2.464212500E-1,-4.580154896E0,-3.631545544E0,3.935771227E0
2.484246870E-1,-4.419657707E0,-3.368042946E0,4.115432262E0
2.504281250E-1,-4.263951778E0,-3.152449846E0,4.283115864E0
2.524315620E-1,-4.120223045E0,-2.991952658E0,4.407680511E0
2.544350000E-1,-3.986076355E0,-2.888947010E0,4.496313095E0
2.564384370E-1,-3.854325056E0,-2.841037512E0,4.563386440E0
2.584418750E-1,-3.705805302E0,-2.833851099E0,4.594527721E0
2.604453120E-1,-3.523748875E0,-2.860201359E0,4.601714134E0
2.624487500E-1,-3.315342188E0,-2.915297270E0,4.625669003E0
2.644521870E-1,-3.090167284E0,-2.996743679E0,4.666392326E0
2.664556250E-1,-2.872178793E0,-3.102144718E0,4.678369522E0
2.684590620E-1,-2.702099800E0,-3.241082430E0,4.663996696E0
2.704625000E-1,-2.575139523E0,-3.403975010E0,4.666392326E0
2.724659370E-1,-2.445783615E0,-3.581240416E0,4.699928761E0
2.744693750E-1,-2.297263861E0,-3.777669668E0,4.762211323E0
2.764728120E-1,-2.143953323E0,-4.002844810E0,4.843657494E0
2.784762500E-1,-2.005015612E0,-4.261556149E0,4.920312881E0
2.804796870E-1,-1.904405475E0,-4.546618462E0,4.989781857E0
2.824831250E-1,-1.849309444E0,-4.858030319E0,5.052064419E0
2.844865620E-1,-1.822959185E0,-5.198188305E0,5.116742134E0
2.864900000E-1,-1.818168163E0,-5.559905529E0,5.167047024E0
2.884934370E-1,-1.830145597E0,-5.938391209E0,5.181420326E0
2.904968750E-1,-1.868473291E0,-6.350413799E0,5.157465458E0
2.925003120E-1,-1.947524071E0,-6.798367977E0,5.111951351E0
2.945037500E-1,-2.074484348E0,-7.253509045E0,5.042482376E0
2.965071870E-1,-2.220608711E0,-7.720627308E0,4.946663380E0
2.985106250E-1,-2.376314640E0,-8.226073265E0,4.812516212E0
3.005140620E-1,-2.555975676E0,-8.769846916E0,4.640041828E0
3.025175000E-1,-2.769173145E0,-9.330389023E0,4.443612576E0
3.045209370E-1,-2.991952658E0,-9.881348610E0,4.220833302E0
3.065243750E-1,-3.190777302E0,-1.042512226E1,3.981285334E0
3.085278120E-1,-3.360856295E0,-1.097847843E1,3.727364540E0
3.105312500E-1,-3.509376049E0,-1.152943802E1,3.459070921E0
3.125346870E-1,-3.641127348E0,-1.206123447E1,3.185986519E0
3.145381250E-1,-3.748924017E0,-1.256188965E1,2.915297270E0
3.165415620E-1,-3.813601732E0,-1.303619385E1,2.642212868E0
3.185450000E-1,-3.851929426E0,-1.349133492E1,2.381105661E0
3.205484370E-1,-3.883070707E0,-1.390575314E1,2.141557932E0
3.225518750E-1,-3.897443533E0,-1.425309753E1,1.918778300E0
3.245553120E-1,-3.904629946E0,-1.453576374E1,1.669648528E0
3.265587500E-1,-3.895048141E0,-1.476812553E1,1.384586573E0
3.285621870E-1,-3.854325056E0,-1.495736790E1,1.104315639E0
3.305656250E-1,-3.799228907E0,-1.508672428E1,8.503949046E-1
3.325690620E-1,-3.756110430E0,-1.513942432E1,6.132425070E-1
3.345725000E-1,-3.729760170E0,-1.511546993E1,3.760901392E-1
3.365759370E-1,-3.703409910E0,-1.500048637E1,1.245648861E-1
3.385793750E-1,-3.657895803E0,-1.476093864E1,-1.604970694E-1
3.405828120E-1,-3.624359131E0,-1.439443016E1,-4.790956974E-1
3.425862500E-1,-3.657895803E0,-1.392731190E1,-8.336265087E-1
3.445896870E-1,-3.763296843E0,-1.336437511E1,-1.233671427E0
3.465931250E-1,-3.947748661E0,-1.271759605E1,-1.674439549E0
3.485965620E-1,-4.206460476E0,-1.201811600E1,-2.141557932E0
3.506000000E-1,-4.503499508E0,-1.131624031E1,-2.630235434E0
3.526034370E-1,-4.798143387E0,-1.065748405E1,-3.116517544E0
3.546068750E-1,-5.076018810E0,-1.004184628E1,-3.581240416E0
3.566103120E-1,-5.346708298E0,-9.450162888E0,-4.014822006E0
3.586137500E-1,-5.612606049E0,-8.896807671E0,-4.422053337E0
3.606171870E-1,-5.847362995E0,-8.405734062E0,-4.788561821E0
3.626206250E-1,-6.015046597E0,-7.974547863E0,-5.092787266E0
3.646240620E-1,-6.110865593E0,-7.598457813E0,-5.320357800E0
3.666275000E-1,-6.165961742E0,-7.253509045E0,-5.456900120E0
3.686309370E-1,-6.182730198E0,-6.944492340E0,-5.514391422E0
3.706343750E-1,-6.137216091E0,-6.697758198E0,-5.497623444E0
3.726378120E-1,-6.029419422E0,-6.520492554E0,-5.416176796E0
3.746412500E-1,-5.897668362E0,-6.381554604E0,-5.267657280E0
3.766446870E-1,-5.797058105E0,-6.256989956E0,-5.056855202E0
3.786481250E-1,-5.737171173E0,-6.153984547E0,-4.786166191E0
3.806515620E-1,-5.727589130E0,-6.070142746E0,-4.477149487E0
3.826550000E-1,-5.753939629E0,-5.995882988E0,-4.146573544E0
3.846584370E-1,-5.794662476E0,-5.945577621E0,-3.796833515E0
3.866618750E-1,-5.825803757E0,-5.926414013E0,-3.435116291E0
3.886653120E-1,-5.832990170E0,-5.940786839E0,-3.059026003E0
3.906687500E-1,-5.811430931E0,-5.979114532E0,-2.694913387E0
3.926721870E-1,-5.780289650E0,-6.024628639E0,-2.337986946E0
3.946756250E-1,-5.744357586E0,-6.065351486E0,-1.976269841E0
3.966790620E-1,-5.689261436E0,-6.103679180E0,-1.607366085E0
3.986825000E-1,-5.610210896E0,-6.139611721E0,-1.248044372E0
4.006859370E-1,-5.492832184E0,-6.189916611E0,-8.911179900E-1
4.026893750E-1,-5.320357800E0,-6.266571999E0,-5.150278807E-1
4.046928120E-1,-5.104764938E0,-6.364786625E0,-1.221694052E-1
4.066962500E-1,-4.889171600E0,-6.486956120E0,2.682935894E-1
4.086996870E-1,-4.721487999E0,-6.616311550E0,6.300108433E-1
4.107031250E-1,-4.611296177E0,-6.745667458E0,9.318411350E-1
4.127065620E-1,-4.532245636E0,-6.875023365E0,1.166598082E0
4.147100000E-1,-4.446008205E0,-6.994797230E0,1.351049900E0
4.167134370E-1,-4.352584362E0,-7.102593899E0,1.489987612E0
4.187168750E-1,-4.263951778E0,-7.198412895E0,1.600179672E0
4.207203120E-1,-4.182505608E0,-7.289441109E0,1.698394299E0
4.227237500E-1,-4.096268177E0,-7.378073692E0,1.782235980E0
4.247271870E-1,-3.978889942E0,-7.473893166E0,1.863682270E0
4.267306250E-1,-3.830370188E0,-7.562525749E0,1.954710484E0
4.287340620E-1,-3.653104782E0,-7.653553963E0,2.048134089E0
4.307375000E-1,-3.454280138E0,-7.751768589E0,2.136766911E0
4.327409370E-1,-3.260246277E0,-7.859565258E0,2.208631277E0
4.347443750E-1,-3.080585480E0,-7.967361450E0,2.261331797E0
4.367478120E-1,-2.912901878E0,-8.075158119E0,2.299659491E0
4.387512500E-1,-2.759591341E0,-8.178163528E0,2.323614120E0
4.407546870E-1,-2.615862608E0,-8.269191742E0,2.335591555E0
4.427581250E-1,-2.474529266E0,-8.343451500E0,2.337986946E0
4.447615620E-1,-2.323614120E0,-8.408129692E0,2.326009750E0
4.467650000E-1,-2.155930758E0,-8.463225365E0,2.294868469E0
4.487684370E-1,-2.000224590E0,-8.518321991E0,2.244563341E0
4.507718750E-1,-1.870868683E0,-8.590186119E0,2.179885387E0
4.527753120E-1,-1.748699307E0,-8.674027443E0,2.110416651E0
4.547787500E-1,-1.640902758E0,-8.753078461E0,2.036156654E0
4.567821870E-1,-1.557061076E0,-8.824942589E0,1.952314973E0
4.587856250E-1,-1.489987612E0,-8.901597977E0,1.856495857E0
4.607890620E-1,-1.430100679E0,-8.966276169E0,1.753490329E0
4.627925000E-1,-1.379795671E0,-9.006999016E0,1.652880192E0
4.647959370E-1,-1.343863487E0,-9.042931557E0,1.566643000E0
4.667993750E-1,-1.336677074E0,-9.086050034E0,1.492383122E0
4.688028120E-1,-1.355840802E0,-9.129168510E0,1.432496190E0
4.708062500E-1,-1.384586573E0,-9.172286987E0,1.370213747E0
4.728096870E-1,-1.418123245E0,-9.217801094E0,1.288767457E0
4.748131250E-1,-1.466032863E0,-9.258524895E0,1.195343852E0
4.768165620E-1,-1.521128893E0,-9.287270546E0,1.097129226E0
4.788200000E-1,-1.590597749E0,-9.316016197E0,9.917281270E-1
4.808234370E-1,-1.669648528E0,-9.344761848E0,8.839315772E-1
4.828268750E-1,-1.748699307E0,-9.378298759E0,7.737395763E-1
4.848303120E-1,-1.815772772E0,-9.411835670E0,6.611520648E-1
4.868337500E-1,-1.873264194E0,-9.442975998E0,5.389826894E-1
4.888371870E-1,-1.918778300E0,-9.471722603E0,4.168132544E-1
4.908406250E-1,-1.945128560E0,-9.507654190E0,3.090167344E-1
4.928440620E-1,-1.933151126E0,-9.536399841E0,2.155930698E-1
4.948475000E-1,-1.894823551E0,-9.550772667E0,1.197739244E-1
4.968509370E-1,-1.873264194E0,-9.569936752E0,-4.790957086E-3
4.988543750E-1,-1.918778300E0,-9.617846489E0,-1.892428100E-1
5.008578120E-1,-2.016993046E0,-9.708874702E0,-4.168132544E-1
5.028612500E-1,-2.122394085E0,-9.826252937E0,-6.515701413E-1
5.048646870E-1,-2.187071800E0,-9.946026802E0,-8.767451644E-1
5.068681250E-1,-2.215817690E0,-1.005382347E1,-1.106711030E0
5.088715620E-1,-2.256540775E0,-1.014245605E1,-1.334281564E0
5.108750000E-1,-2.321218729E0,-1.022629833E1,-1.564247489E0
5.128784370E-1,-2.388292074E0,-1.031493092E1,-1.796608925E0
5.148818750E-1,-2.452970028E0,-1.039637661E1,-2.019388437E0
5.168853120E-1,-2.493693113E0,-1.045865917E1,-2.234981537E0
5.188887500E-1,-2.496088743E0,-1.048980045E1,-2.443388224E0
5.208921870E-1,-2.469738483E0,-1.049219608E1,-2.630235434E0
5.228956250E-1,-2.429015160E0,-1.047303200E1,-2.781150579E0
5.248990620E-1,-2.402664900E0,-1.043230915E1,-2.896133661E0
5.269025000E-1,-2.390687704E0,-1.037242222E1,-2.975184441E0
5.289059370E-1,-2.366732836E0,-1.029337120E1,-3.015907526E0
5.309093750E-1,-2.328405142E0,-1.019036579E1,-3.023093939E0
5.329128120E-1,-2.278100014E0,-1.006819630E1,-3.001534700E0
5.349162500E-1,-2.232585907E0,-9.946026802E0,-2.958415985E0
5.369196870E-1,-2.218213081E0,-9.835834503E0,-2.879365206E0
5.389231250E-1,-2.242167950E0,-9.732829094E0,-2.776359558E0
5.409265620E-1,-2.309241295E0,-9.639405251E0,-2.651794672E0
5.429300000E-1,-2.424224377E0,-9.569936752E0,-2.510461569E0
5.449334370E-1,-2.565557480E0,-9.524422646E0,-2.361941814E0
5.469368750E-1,-2.718868256E0,-9.490885735E0,-2.201444864E0
5.489403120E-1,-2.874574184E0,-9.464535713E0,-2.036156654E0
5.509437500E-1,-3.044653177E0,-9.445371628E0,-1.844518423E0
5.529471870E-1,-3.217127800E0,-9.426208496E0,-1.638507366E0
5.549506250E-1,-3.363251925E0,-9.399857521E0,-1.437287092E0
5.569540620E-1,-3.471048355E0,-9.371111870E0,-1.240857840E0
5.589575000E-1,-3.557285547E0,-9.335180283E0,-1.051615119E0
5.609609370E-1,-3.633940935E0,-9.304039001E0,-8.575813174E-1
5.629643750E-1,-3.705805302E0,-9.284874916E0,-6.683385372E-1
5.649678120E-1,-3.772878647E0,-9.260919571E0,-4.934685826E-1
5.669712500E-1,-3.823183775E0,-9.222592354E0,-3.377624750E-1
5.689746870E-1,-3.832765579E0,-9.172286987E0,-2.060111612E-1
5.709781250E-1,-3.804019928E0,-9.114795685E0,-9.342366457E-2
5.729815620E-1,-3.765692234E0,-9.057304382E0,-0.000000000E0
5.749850000E-1,-3.741737366E0,-8.990230560E0,7.905079424E-2
5.769884370E-1,-3.736946583E0,-8.923157692E0,1.557061076E-1
5.789918750E-1,-3.741737366E0,-8.851293564E0,2.347569019E-1
5.809953120E-1,-3.768087864E0,-8.769846916E0,3.162031770E-1
5.829987500E-1,-3.825579166E0,-8.688400269E0,3.808811009E-1
5.850021870E-1,-3.904629946E0,-8.609350204E0,4.120223224E-1
5.870056250E-1,-3.971703529E0,-8.520717621E0,4.192087352E-1
5.890090620E-1,-4.017217636E0,-8.427293777E0,4.072313607E-1
5.910125000E-1,-4.060336113E0,-8.338661194E0,3.689036965E-1
5.930159370E-1,-4.113036633E0,-8.266796112E0,3.114122152E-1
5.950193750E-1,-4.156155109E0,-8.199723244E0,2.515252531E-1
5.970228120E-1,-4.175319195E0,-8.139836311E0,1.868473291E-1
5.990262500E-1,-4.180109978E0,-8.096717834E0,1.054010540E-1
6.010296870E-1,-4.175319195E0,-8.070366859E0,1.916382834E-2
6.030331250E-1,-4.165737152E0,-8.055994034E0,-7.186435908E-2
6.050365620E-1,-4.153759956E0,-8.055994034E0,-1.700789779E-1
6.070400000E-1,-4.148968697E0,-8.077553749E0,-2.682935894E-1
6.090434370E-1,-4.146573544E0,-8.120672226E0,-3.593217731E-1
6.110468750E-1,-4.132200718E0,-8.180559158E0,-4.431635439E-1
6.130503120E-1,-4.113036633E0,-8.254818916E0,-5.174233913E-1
6.150537500E-1,-4.093873024E0,-8.338661194E0,-5.844967365E-1
6.170571870E-1,-4.069918156E0,-8.429689407E0,-6.515701413E-1
6.190606250E-1,-4.031590462E0,-8.539880753E0,-7.114571333E-1
6.210640620E-1,-3.981285334E0,-8.654864311E0,-7.593666911E-1
6.230675000E-1,-3.930980206E0,-8.760265350E0,-7.929034233E-1
6.250709370E-1,-3.873488903E0,-8.858479500E0,-8.264400959E-1
6.270743750E-1,-3.804019928E0,-8.951903343E0,-8.623722792E-1
6.290778120E-1,-3.720178127E0,-9.038140297E0,-8.839315772E-1
6.310812500E-1,-3.641127348E0,-9.124378204E0,-8.935135007E-1
6.330846870E-1,-3.578845024E0,-9.208219528E0,-8.959089518E-1
6.350881250E-1,-3.516562462E0,-9.282479286E0,-8.911179900E-1
6.370915620E-1,-3.425534248E0,-9.339970589E0,-8.767451644E-1
6.390950000E-1,-3.310551405E0,-9.378298759E0,-8.575813174E-1
6.410984370E-1,-3.183590889E0,-9.397461891E0,-8.456039429E-1
6.431018750E-1,-3.035071373E0,-9.407044411E0,-8.432084322E-1
6.451053120E-1,-2.893738031E0,-9.426208496E0,-8.312310576E-1
6.471087500E-1,-2.769173145E0,-9.450162888E0,-8.168581724E-1
6.491121870E-1,-2.654190302E0,-9.474117279E0,-7.929034233E-1
6.511156250E-1,-2.534416199E0,-9.500468254E0,-7.593666911E-1
6.531190620E-1,-2.426619768E0,-9.536399841E0,-7.162480950E-1
6.551225000E-1,-2.340382576E0,-9.584309578E0,-6.635475755E-1
6.571259370E-1,-2.254145384E0,-9.634614944E0,-6.132425070E-1
6.591293750E-1,-2.163117170E0,-9.687314987E0,-5.773103237E-1
6.611328120E-1,-2.084066391E0,-9.742411613E0,-5.341917276E-1
6.631362500E-1,-2.024179459E0,-9.807088852E0,-4.814911783E-1
