,Time (s),Acceleration x (m/s^2),Acceleration y (m/s^2),Acceleration z (m/s^2)
3942,20.001956,-1.1204863790000001,-4.647145271,0.38546648619999996
3943,20.006961,-0.9600749016,-4.65193367,-0.0191536136
3944,20.011966,-0.7829039693000001,-4.690241337,-0.43335050340000003
3945,20.016971,-0.5698199868,-4.802768707,-1.04147768
3946,20.021976,-0.3806780577,-4.893748283,-1.628057122
3947,20.027957,-0.1891419291,-4.953603268,-2.446874142
3948,20.032962,0.1101332754,-4.996698856,-3.11964488
3949,20.037967,0.3926490843,-5.049371243,-3.734954596
3950,20.043948,0.6368576288000001,-5.190629482,-4.525041103
3951,20.048953,0.7517793179000001,-5.408501625,-5.090072632
3952,20.053958,0.8331822157,-5.851428986,-5.528211594
3953,20.058963,0.7637503147,-6.548141479,-5.762843609
3954,20.063968,1.280897856,-7.580042362,-6.294356346
3955,20.068973,2.1045033930000003,-8.487444878,-7.1466922760000005
3956,20.073978,2.767697096,-9.710882187000001,-8.480262756
3957,20.078982,3.174711466,-11.29584408,-10.19211674
3958,20.084964,3.0286650660000003,-13.85285091,-12.06677628
3959,20.090945,2.6910827160000004,-16.74983597,-13.95101357
3960,20.09595,3.1627404689999996,-18.59576416,-14.73870564
3961,20.100955,3.7397429939999998,-19.46964836,-14.2143755
3962,20.10596,3.94085598,-19.28050613,-13.23514652
3963,20.110965,4.01507616,-17.62850761,-12.13860226
3964,20.11597,3.541024208,-15.46893692,-11.27429581
3965,20.120975,2.808398485,-13.09149456,-10.11550236
3966,20.125979,2.056619167,-10.73560047,-8.74601841
3967,20.130923,1.1276689770000001,-8.688557625,-7.340622425
3968,20.135867,0.3351882398,-7.055712223,-6.145915985
3969,20.140933,-0.349553436,-5.808333397,-5.13556242
3970,20.145938,-0.9385270476,-4.556165695,-4.218583584
3971,20.150943,-0.8882488012,-3.7205893989999996,-4.410119534
3972,20.155948,-0.4932055473,-3.1627404689999996,-5.324704647
3973,20.160952,0.14604631070000001,-2.892195702,-5.734113216
3974,20.165896,1.022324085,-2.8275523189999996,-5.489904404
3975,20.170962,2.183511972,-2.7533319,-4.4963107110000005
3976,20.175967,3.277662039,-2.703053713,-0.5793967843
3977,20.180972,3.6655228139999996,-2.82276392,3.08373189
3978,20.185977,3.064578056,-3.337517262,4.57771349
3979,20.190982,2.006340981,-4.086902142,3.648763418
3980,20.195926,0.6847416759,-5.114014626,1.7932571169999998
3981,20.20093,-0.9361328483,-6.466738701000001,0.19632454219999998
3982,20.206973,-3.033453465,-8.511386871000001,-1.673547029
3983,20.211978,-4.8291049,-10.49139214,-3.588908434
3984,20.216983,-5.717353821000001,-12.89277649,-4.551377296
3985,20.221926,-5.204994678,-14.71236992,-4.728548527
3986,20.226931,-3.6679170130000003,-16.31887817,-5.851428986
3987,20.231875,-0.3998316824,-17.93735886,-8.863334656000001
3988,20.237979,2.432508945,-21.21741486,-11.02051067
3989,20.242923,2.312798738,-24.45676994,-9.682151794
3990,20.247927,1.429338455,-27.02574921,-8.224082947000001
3991,20.252932,0.4285621047,-27.72485542,-7.017405032999999
3992,20.257937,0.2442085743,-23.32910156,-1.67115283
3993,20.262942,-0.6775590777,-17.5686512,4.781220913
3994,20.267947,-2.995146275,-12.2846489,8.868123055
3995,20.272952,-5.808333397,-7.867346764,8.343792915
3996,20.277896,-7.817068577000001,-4.012681961,4.920084476
3997,20.282961,-8.585607528999999,-0.5195417404,1.139639974
3998,20.287966,-9.382876396,1.824381709,-2.0925323959999997
3999,20.292971,-10.18493366,2.928108692,-3.337517262
4000,20.297976,-10.27830791,2.30801034,-1.74776721
4001,20.303958,-8.55448246,0.1340752989,0.8451532125
4002,20.308962,-5.779603004,-1.824381709,2.446874142
4003,20.313967,-3.27287364,-3.584120035,3.4931402210000004
4004,20.318911,-1.5682021380000002,-5.284003258,3.572149038
4005,20.323977,0.06943184882,-6.888118267,3.2393548489999997
4006,20.328982,1.5921441319999998,-8.451532364,2.779668093
4007,20.333926,2.6072857380000003,-10.52730465,2.616862535
4008,20.338931,3.313575268,-12.17930412,2.604891539
4009,20.344973,3.538630009,-14.34605694,2.5067291259999998
4010,20.349978,3.7421371939999997,-15.52879238,2.363077164
4011,20.354922,3.8881835939999996,-16.21832275,2.056619167
4012,20.359927,4.108449936,-16.53435707,1.8148049119999998
4013,20.364931,4.491522312,-16.36676216,1.455674648
4014,20.369936,4.228160381,-16.06509399,0.3998316824
4015,20.374941,3.0214824680000003,-15.56949329,-0.787692368
4016,20.379946,1.812410712,-14.7794075,-1.9991583819999998
4017,20.384951,0.5147533417,-13.57033539,-3.062183857
4018,20.389956,-0.6296750307,-12.24155331,-3.9480385780000002
4019,20.394961,-1.577778935,-11.06121159,-4.453215122
4020,20.399966,-2.2194249630000003,-10.12268448,-4.546588898
4021,20.40497,-2.3870191569999997,-9.323021889,-3.97676897
4022,20.409914,-2.3295583719999997,-9.009381293999999,-3.289633036
4023,20.41498,-2.159569979,-8.894459723999999,-2.626439333
4024,20.419924,-1.7453730109999999,-8.947132111,-2.1619641780000003
4025,20.424929,-1.462857246,-9.155426979,-1.927332401
4026,20.429934,-1.1994950770000001,-9.500192642,-1.8579005
4027,20.434939,-0.9911994934,-9.737217903,-1.6807296280000001
4028,20.439943,-0.5195417404,-9.907206535,-1.520318031
4029,20.444948,-0.2561795712,-9.957485199,-1.395819545
4030,20.449953,-0.04309562966,-9.979032516,-1.307234168
4031,20.454958,0.23942017559999998,-9.931148529,-1.244984865
4032,20.459963,0.4094084799,-9.883264542000001,-1.101332784
4033,20.464968,0.5051765442,-9.775525092999999,-0.9074024558
4034,20.469973,0.5746083856,-9.660603522999999,-0.8140285611
4035,20.474978,0.7733271718000001,-9.583989143,-0.8116343617
4036,20.479982,1.036689281,-9.54807663,-0.7158663273
4037,20.484926,1.1971008779999999,-9.40681839,-0.4501099288
4038,20.490969,1.00556469,-9.165003777,-0.19632454219999998
4039,20.495974,0.9672574997,-8.901641846,-0.01197100803
4040,20.500978,0.8403648137999999,-8.635885239,0.4596867263
4041,20.50696,0.9145850539,-8.418013573,0.5722141862
4042,20.512941,0.9265560508,-8.379706383,0.07900865376
4043,20.517946,0.9528923035,-8.422801971,-0.5219359994
4044,20.522951,0.9696516990999999,-8.420407295,-1.1923124790000001
4045,20.527956,0.7422025204000001,-8.406042099,-1.434126854
4046,20.532961,0.5027823448,-8.398859977999999,-1.4413094519999998
4047,20.537966,0.4525041282,-8.398859977999999,-1.606509328
4048,20.542971,0.2753331959,-8.341399192999999,-1.675941229
4049,20.547975,-0.06703764945,-8.274360657,-1.391031146
4050,20.55298,-0.2585737705,-8.236053467,-0.9337386489
4051,20.557924,-0.36152446270000005,-8.082824707,-0.4022258818
4052,20.562929,-0.215478152,-7.9319901470000005,-0.1436520964
4053,20.567934,0.009576806799,-7.776367187999999,-0.107739076
4054,20.572939,0.08858546615,-7.666234016000001,-0.2250549644
4055,20.577944,-0.05027823523,-7.829039573999999,-0.6153098345
4056,20.582948,-0.3280056417,-8.118738174,-0.9935936928
4057,20.587953,-0.691924274,-8.396465302000001,-0.806845963
4058,20.592958,-0.9816226959000001,-8.537723541,-0.8307880163
4059,20.597963,-1.177947283,-8.595184326,-1.024718285
4060,20.602968,-1.419761658,-8.676587105,-1.357512355
4061,20.607973,-1.5682021380000002,-8.743624687,-1.7190368180000002
4062,20.612978,-1.644816518,-8.916007042,-2.142810583
4063,20.617983,-1.563413739,-9.210494041,-2.602497339
4064,20.622865,-1.357512355,-9.567230225,-2.93768549
4065,20.628969,-0.9576807022,-9.854534149,-2.964021683
4066,20.63495,-0.7469909190999999,-9.895236015,-2.667140722
4067,20.639955,-0.3280056417,-9.780313492000001,-2.3870191569999997
4068,20.64496,0.1843535304,-9.706093787999999,-2.126051188
4069,20.649965,0.8882488012,-9.706093787999999,-1.838746905
4070,20.65497,1.539471745,-9.651026726,-1.400607944
4071,20.660951,2.480392933,-9.600749016,-0.8331822157
4072,20.665773,3.263296843,-9.512163162,-0.3303998411
4073,20.671938,3.708618402,-9.44512558,-0.1867477298
4074,20.676942,4.005499363,-9.442731857,-0.3734954596
4075,20.681947,4.228160381,-9.507374763,-0.6512228847
4076,20.687929,4.548983097,-9.737217903,-0.6967126726999999
4077,20.692934,4.649539471000001,-9.969455718999999,-0.4836287498
4078,20.697938,4.857835293,-10.13944435,-0.14844051
4079,20.702943,5.147533417,-10.22084713,0.1628057212
4080,20.707948,5.317522049,-10.3309803,0.3016694188
4081,20.712953,5.173870087,-10.50815105,0.0718260482
4082,20.717958,4.65193367,-10.79784966,-0.6105214357
4083,20.722963,3.569754839,-11.14261436,-1.836352706
4084,20.727968,1.6089035269999998,-11.71243477,-3.059789658
4085,20.732973,-0.2992752194,-12.18648624,-4.367023945
4086,20.737916,-1.618480325,-12.33732128,-5.370194435
4087,20.742921,-2.315192938,-12.2607069,-5.880159377999999
4088,20.747926,-2.461239338,-12.24634171,-5.698200226
4089,20.752931,-2.135627985,-12.54322243,-4.802768707
4090,20.757936,-1.163581967,-12.928689,-3.3327288630000003
4091,20.762819,0.6392518282,-13.64694977,-2.22900176
4092,20.767946,1.757344007,-13.94143677,-2.159569979
4093,20.77295,3.155557871,-14.20719242,-2.372653961
4094,20.777833,4.630385876,-14.64054298,-3.062183857
4095,20.782838,4.580107689,-14.73870564,-3.174711466
4096,20.787965,4.307168961,-14.73870564,-3.227383852
4097,20.79297,3.770867586,-14.35084534,-3.186682463
4098,20.798951,3.6894648080000003,-13.68525696,-3.090914488
4099,20.803956,3.6918590069999997,-13.09149456,-3.074155092
4100,20.808961,3.5625722410000003,-12.8592577,-3.500322819
4101,20.813966,3.265691042,-12.90235329,-4.09408474
4102,20.818973,3.1316158769999998,-12.82095051,-4.350264548999999
4103,20.823978,2.655169725,-12.6389904,-4.290409565
4104,20.828861,1.810016513,-12.46660805,-4.144362926
4105,20.833927,0.5793967843,-12.27746677,-3.900154591
4106,20.83881,-0.8882488012,-12.73236465,-3.9432501789999996
4107,20.843937,-1.335964561,-12.93587208,-3.8929719919999997
4108,20.849979,-2.370259762,-13.29260826,-3.282450438
4109,20.854923,-3.004723072,-13.52005672,-2.470816135
4110,20.859928,-3.593696833,-14.04917526,-1.687912226
4111,20.864933,-3.991134167,-14.7841959,-0.921767652
4112,20.869877,-4.086902142,-15.64131927,-0.1987187415
4113,20.874942,-3.921702385,-16.67322159,0.653617084
4114,20.879947,-3.67988801,-17.12333107,1.381454349
4115,20.884952,-3.4715924260000004,-17.08502388,2.322375536
4116,20.889957,-3.1723172660000003,-16.64927864,3.069366693
4117,20.894962,-2.681505919,-16.10100555,3.138798475
4118,20.899967,-2.1045033930000003,-15.68441486,2.487575531
4119,20.904972,-1.6089035269999998,-15.19120979,1.259350061
4120,20.909977,-1.295263171,-14.91587639,0.2418143749
4121,20.914981,-1.235408068,-14.65969658,-1.067813993
4122,20.919925,-1.4748282430000001,-14.29817295,-2.41574955
4123,20.92493,-1.067813993,-14.07551193,-3.224989653
4124,20.929935,-0.15562310810000002,-13.95101357,-3.4739866260000003
4125,20.93494,1.074996591,-13.86003399,-3.031059265
4126,20.939945,1.328781962,-13.95819569,-2.616862535
4127,20.94495,-0.3639186621,-14.07790565,-2.741360903
4128,20.949955,-2.293645144,-14.17846203,-2.93529129
4129,20.954959,-3.591302633,-14.13536644,-3.045424461
4130,20.959964,-3.9695863719999998,-13.88397598,-2.8036100860000004
4131,20.964969,-3.0789434910000004,-13.14177322,-2.300827742
4132,20.969974,-1.59693253,-12.10268974,-2.123656988
4133,20.974979,0.806845963,-10.55842972,-2.667140722
4134,20.98096,1.244984865,-9.895236015,-2.535459518
4135,20.985965,1.4963760380000002,-9.488221169,-2.576161146
4136,20.99097,1.280897856,-9.205705643,-2.121262789
4137,20.995975,0.9792284966,-8.829815865,-1.292868972
4138,21.00098,0.9768342972,-8.319850922,-0.4381389022
4139,21.005924,1.158793569,-7.8529815670000005,0.5147533417
4140,21.010928,1.110909581,-7.520187377999999,1.240196466
4141,21.015933,0.6607996821000001,-7.424419403,0.8164227605
4142,21.020938,0.6631938815,-7.043741226,-0.01197100803
4143,21.025943,0.825999558,-6.631938934,-0.6584054828
4144,21.030948,0.8954314590000001,-6.251260757000001,-0.8595184088
4145,21.035953,0.8188169598999999,-5.901707172,-0.7805097699
4146,21.040958,0.9313444495000001,-5.585672379,-0.4596867263
4147,21.046939,0.8331822157,-5.334281445,-0.038307227189999994
4148,21.051944,0.4381389022,-5.260061264,0.181959331
4149,21.056949,0.1053448766,-5.130774021000001,0.5674257874
4150,21.061954,0.07661445438999999,-4.9416322710000005,0.6296750307
4151,21.066959,-0.04070143028999999,-4.766855716999999,0.6464344859000001
4152,21.071963,-0.3519476354,-4.6184148789999995,0.8140285611
4153,21.077945,-1.146822572,-4.544194698,0.9816226959000001
4154,21.08295,-2.099714994,-4.616020679,0.9983820915
4155,21.087955,-2.8874073030000003,-4.762067318,0.8236053586
4156,21.09296,-3.112462282,-4.79319191,0.6368576288000001
4157,21.097964,-3.179499865,-4.764461517,0.5770025849
4158,21.102969,-3.19625926,-4.7596731189999995,0.8882488012
4159,21.107974,-3.12203908,-4.687847136999999,1.4149732590000001
4160,21.112979,-3.0885202880000002,-4.587290287,1.8579005
4161,21.117923,-2.8538885119999997,-4.469974518,2.209848166
4162,21.122928,-2.6096799369999997,-4.465186119,2.518700123
4163,21.127933,-2.3199813369999998,-4.4316673280000005,2.595314741
4164,21.132937,-2.066195965,-4.426878929,2.41574955
4165,21.137942,-1.8148049119999998,-4.453215122,2.04704237
4166,21.142947,-1.424550056,-4.508281708,1.616086125
4167,21.147952,-1.060631394,-4.6255974769999995,1.240196466
4168,21.152957,-0.7852981687,-4.730942726,0.9744400978
4169,21.157962,-0.6009446383,-4.814739704,0.6129156351
4170,21.162967,-0.39504328369999997,-4.843470097,0.052672438319999994
4171,21.167972,-0.3208230138,-4.786009312,-0.39504328369999997
4172,21.172976,-0.2968810201,-4.695029736,-0.9050082564
4173,21.177981,-0.2992752194,-4.623203278,-1.5227122309999999
4174,21.182925,-0.06464344262999999,-4.515464306,-2.102109194
4175,21.18793,0.23942017559999998,-4.486733913,-2.695871115
4176,21.192935,0.7038952708,-4.620809078,-3.624821424
4177,21.19794,1.156399369,-5.015852451000001,-4.458003521
4178,21.203982,1.4891934390000001,-5.822698592999999,-5.607220172999999
4179,21.208926,1.283292055,-6.754043102000001,-6.904877663
4180,21.213931,0.806845963,-7.862558365,-8.731653214
4181,21.219973,0.6009446383,-9.078812598999999,-11.96382618
4182,21.224978,0.7422025204000001,-10.00536919,-14.45858383
4183,21.23096,1.424550056,-11.51371574,-15.64371395
4184,21.235965,2.293645144,-13.37640476,-14.70997524
4185,21.240969,3.303998232,-15.95495987,-13.15135002
4186,21.245974,3.145981073,-20.22142792,-11.6118784
4187,21.250979,2.985569477,-23.18784332,-11.33415127
4188,21.255923,3.548206806,-24.41606903,-12.72757626
4189,21.260928,4.410119534,-23.74329758,-14.62378407
4190,21.265811,4.024652958,-20.58534622,-15.38514042
4191,21.270938,3.371036053,-17.53992081,-14.66448498
4192,21.275942,2.389413357,-13.32852077,-12.28704357
4193,21.280947,0.6679822803000001,-9.014169693,-9.136273383999999
4194,21.286929,-0.5195417404,-6.536170482999999,-7.053318024
4195,21.291751,-1.644816518,-4.288015366000001,-5.865794182
4196,21.296755,-2.051830769,-3.42131424,-4.9847278589999995
4197,21.301943,-2.226607561,-2.918531895,-4.331110954
4198,21.307925,-2.540247917,-2.30561614,-3.56736064
4199,21.313967,-2.178723574,-1.575384736,-3.5314474110000003
4200,21.318972,-1.237802267,-1.034295082,-3.632004023
4201,21.323977,-0.08619125932,-0.8667010069,-3.629609823
4202,21.329958,0.8858546019,-1.800439715,-4.6184148789999995
4203,21.334963,1.4963760380000002,-3.38061285,-5.803544998
4204,21.339907,2.027888775,-5.530605792999999,-6.007051945
4205,21.344973,3.5194764139999997,-8.312667847,-4.027047157
4206,21.349917,4.335899353,-10.29506683,-1.740584612
4207,21.354922,3.761290789,-12.23915863,-0.02154781483
4208,21.359927,2.401384354,-14.01805115,0.5770025849
4209,21.364931,0.8451532125,-15.56709957,-0.03112462163
4210,21.369936,-0.8044517636,-16.74983597,-0.5698199868
4211,21.374941,-2.590526342,-17.48246002,-0.3758896589
4212,21.379885,-3.790021181,-17.45851898,-0.5913678407999999
4213,21.384951,-3.5170822139999998,-16.91742897,-1.8148049119999998
4214,21.389956,-3.093308687,-16.37155151,-3.852270603
4215,21.394961,-3.56496644,-15.91425896,-5.714959621
4216,21.399966,-3.847482204,-15.09544182,-7.261613846
4217,21.40497,-3.56496644,-13.74990082,-8.058882713
4218,21.409975,-3.8355112080000002,-11.8920002,-6.31590414
4219,21.41498,-4.7093949319999995,-10.30464458,-2.355894566
4220,21.420962,-5.664681435,-7.967903137,2.327163935
4221,21.425966,-6.299144745,-6.002263546,4.412513733
4222,21.430971,-6.576871872000001,-4.077325344,5.638344765
4223,21.435976,-5.786785602999999,-1.723825216,6.909666061
4224,21.440981,-4.630385876,0.215478152,6.5026516910000005
4225,21.445925,-4.077325344,0.8331822157,3.785232782
4226,21.45093,-4.041412353999999,-0.1292868853,0.1532289088
4227,21.455935,-3.3590650560000004,-1.764526606,-0.7230489254000001
4228,21.46094,-2.580949545,-3.97916317,-0.5554547906
4229,21.465944,-1.766920805,-5.963956356000001,0.0023942017
4230,21.470949,-0.5961562395000001,-7.5944075579999994,1.156399369
4231,21.475954,0.1771709323,-9.105149269,2.2553379540000003
4232,21.480959,0.9624691009999999,-10.83136845,2.8012158869999997
4233,21.485964,1.675941229,-12.11226654,2.8993783
4234,21.490969,2.669534922,-13.13219643,2.995146275
4235,21.495974,3.6942532060000004,-13.94383049,2.9113492969999997
4236,21.500978,4.50109911,-14.60223579,2.296039343
4237,21.500978,-4.477157116,-8.741230011,-2.645592928
4238,21.505983,-4.477157116,-8.741230011,-2.645592928
4239,21.510988,-4.477157116,-8.741230011,-2.645592928
4240,21.515993,-4.477157116,-8.741230011,-2.645592928
4241,21.520998,3.4452562330000003,4.90811348,8.659827232
4242,21.526003,3.253720045,4.786009312,8.710105896
4243,21.531007,3.040636063,4.572925091,8.731653214
4244,21.535829,2.8371291160000003,4.345476151000001,8.760383606
4245,21.540956,2.7772738930000003,4.249708176,8.760383606
4246,21.545961,2.772485495,4.13239193,8.66940403
4247,21.550966,2.755726099,4.101267338,8.616731644
4248,21.555971,2.7174189089999996,4.139574528,8.47786808
4249,21.560976,2.6312277319999997,4.187458992,8.271966934
4250,21.566957,2.52827692,4.240131378,7.977479935
4251,21.571901,2.410961151,4.237737179,7.771578788999999
4252,21.576967,2.264914751,4.254496574,7.58722496
4253,21.581972,2.166752577,4.292803763999999,7.4866685870000005
4254,21.586977,2.1763293740000003,4.335899353,7.445967197000001
4255,21.591981,2.26730895,4.395754337,7.39808321
4256,21.596925,2.439691544,4.441244125,7.419631004
4257,21.601991,2.52827692,4.505887508,7.51061058
4258,21.606996,2.56897831,4.563348293,7.659051418
4259,21.612001,2.580949545,4.594472885,7.850587367999999
4260,21.617006,2.592920542,4.690241337,8.231265067999999
4261,21.622011,2.63601613,4.795586108999999,8.611943245
4262,21.626954,2.681505919,4.620809078,8.710105896
4263,21.631959,2.7844564910000003,4.304774761,8.633491516
4264,21.638002,2.961627483,4.225766182,8.638279915
4265,21.643007,3.059789658,4.304774761,8.738836288
4266,21.648012,3.098097086,4.395754337,8.777143478
4267,21.652955,3.145981073,4.474762917,8.731653214
4268,21.65796,3.23456645,4.546588898,8.645462036
4269,21.662965,3.3542766569999998,4.570530891000001,8.528146743999999
4270,21.66797,3.5506010060000004,4.6184148789999995,8.377311707
4271,21.672975,3.6942532060000004,4.723760128,8.262390137
4272,21.67798,3.6966474060000003,4.8291049,8.121131897
4273,21.682985,3.648763418,4.936843872,8.03494072
4274,21.687989,3.5769374369999998,5.003881454,7.9894509320000004
4275,21.692994,3.4620156289999997,5.035006046,7.963114738
4276,21.697999,3.323152065,4.967968464,7.8745293620000005
4277,21.703004,3.1914708610000004,4.896142483,7.781155586000001
4278,21.708009,3.031059265,4.8554410930000005,7.754819392999999
4279,21.713014,2.8012158869999997,4.809951305,7.8386163710000005
4280,21.717958,2.60010314,4.75488472,7.951143742
4281,21.724,2.3870191569999997,4.639962673,7.951143742
4282,21.729005,2.030282974,4.455609322,7.675810814
4283,21.73401,1.549048543,4.204218388,7.292738438
4284,21.738893,1.103726983,3.8594532010000004,7.249642849
4285,21.743959,0.5123591423,3.485957623,7.508216381
4286,21.748963,-0.1029506698,3.224989653,7.603984832999999
4287,21.753968,-0.6440402865,3.090914488,7.484274387
4288,21.75879,-0.6847416759,3.1316158769999998,7.290344237999999
4289,21.763917,-0.3040636182,3.330334663,6.998251438
