"Time (s)","Acceleration x (m/s^2)","Acceleration y (m/s^2)","Acceleration z (m/s^2)"
0.000000000E0,2.753101826E0,-8.346891403E0,6.615005493E0
2.472136000E-3,2.393779993E0,-8.967320442E0,6.768315792E0
4.944271000E-3,1.986548662E0,-9.659614563E0,6.849762440E0
7.416407000E-3,1.497870922E0,-1.031597519E1,6.763525486E0
9.888542000E-3,9.732612371E-1,-1.104659653E1,6.785084248E0
1.236073000E-2,3.935555220E-1,-1.182991791E1,6.885694504E0
1.483291700E-2,-9.991306067E-2,-1.259407520E1,6.758734226E0
1.730510500E-2,-4.137207568E-1,-1.324085426E1,6.461694717E0
1.977724000E-2,-7.490877509E-1,-1.380858231E1,6.121536732E0
2.224942800E-2,-1.086850166E0,-1.441463852E1,5.723887444E0
2.472156300E-2,-1.412635326E0,-1.497278595E1,5.225627899E0
2.719375000E-2,-1.812680244E0,-1.549739552E1,4.842351437E0
2.966588600E-2,-2.270216465E0,-1.589983654E1,4.473447800E0
3.213807300E-2,-2.629538536E0,-1.627353096E1,3.999142885E0
3.461026100E-2,-3.022396803E0,-1.649151993E1,3.632634878E0
3.711333400E-2,-3.432023764E0,-1.653703308E1,3.131979704E0
3.958552100E-2,-3.856023550E0,-1.649391556E1,2.612160921E0
4.205765700E-2,-4.236904621E0,-1.633341789E1,1.886331081E0
4.452979200E-2,-4.543525696E0,-1.612980270E1,9.449080229E-1
4.700198000E-2,-4.797446728E0,-1.580162144E1,1.112814397E-1
4.947416700E-2,-5.022621632E0,-1.530096626E1,-6.768310070E-1
5.194630300E-2,-5.199886799E0,-1.472605133E1,-1.587112904E0
5.441849000E-2,-5.312474728E0,-1.410083199E1,-2.554886341E0
5.689062500E-2,-5.207073689E0,-1.355226707E1,-3.228015423E0
5.936281300E-2,-5.015435219E0,-1.291027832E1,-3.790952921E0
6.183500000E-2,-4.720791340E0,-1.233536339E1,-4.262862682E0
6.430713600E-2,-4.416564941E0,-1.175565720E1,-4.543133736E0
6.682599000E-2,-4.033288956E0,-1.126218987E1,-4.564692497E0
6.929817800E-2,-3.511074543E0,-1.085974884E1,-4.665302753E0
7.177031300E-2,-2.967300653E0,-1.050761318E1,-4.435337067E0
7.424250000E-2,-2.497786999E0,-1.027046204E1,-4.080806255E0
7.671468800E-2,-2.057018995E0,-1.000216770E1,-3.709506750E0
7.918682300E-2,-1.640205741E0,-9.846461296E0,-3.144174099E0
8.165906300E-2,-1.149132729E0,-9.671591759E0,-2.542908669E0
8.413114600E-2,-8.305340409E-1,-9.403297424E0,-1.979971409E0
8.660333400E-2,-5.957771540E-1,-9.146981239E0,-1.429011226E0
8.907552100E-2,-3.250880837E-1,-8.890666008E0,-9.139833450E-1
9.154765700E-2,-5.200350285E-2,-8.627162933E0,-5.378932357E-1
9.401984400E-2,1.180754900E-1,-8.447501183E0,-2.312719971E-1
9.647786500E-2,4.654198885E-1,-8.174417496E0,3.941707313E-2
9.895005300E-2,5.875892639E-1,-7.997152805E0,5.256991982E-1
1.014221880E-1,4.486514330E-1,-7.961220264E0,7.532697320E-1
1.038943750E-1,8.079732656E-1,-7.958825588E0,6.646369696E-1
1.063665110E-1,1.344560385E0,-7.791141510E0,8.275295496E-1
1.088386980E-1,1.586503744E0,-7.553988934E0,1.323393464E0
1.113108340E-1,1.605667830E0,-7.347978115E0,1.699483633E0
1.137830210E-1,1.632018089E0,-7.209040165E0,1.778534412E0
1.162552090E-1,1.562548876E0,-7.137175560E0,1.891122103E0
1.187273440E-1,1.435588837E0,-7.213830948E0,1.807280302E0
1.211995320E-1,1.399656534E0,-7.201853752E0,1.610851049E0
1.236717190E-1,1.550571680E0,-7.185085773E0,1.110195994E0
1.261778650E-1,1.325396657E0,-7.319231987E0,8.826254606E-1
1.286500530E-1,1.121780992E0,-7.470147133E0,4.179027081E-1
1.311221880E-1,1.045125604E0,-7.592316628E0,1.400271505E-1
1.335943750E-1,1.073871374E0,-7.647412777E0,-2.432493865E-1
1.360665630E-1,1.016379833E0,-7.697717667E0,-5.115429759E-1
1.385386980E-1,9.349336624E-1,-7.791141510E0,-9.355426431E-1
1.410108860E-1,7.265269756E-1,-7.901333332E0,-1.187067986E0
1.434830210E-1,4.534424543E-1,-8.035479546E0,-1.498480082E0
1.459552090E-1,2.210810781E-1,-8.169626236E0,-1.694909334E0
1.484273440E-1,-6.637638807E-2,-8.287004471E0,-1.797914982E0
1.508995320E-1,-2.939468622E-1,-8.457083702E0,-2.152445793E0
1.533717190E-1,-4.424664974E-1,-8.636744499E0,-2.207541704E0
1.558759380E-1,-6.580595970E-1,-8.847546577E0,-2.255451441E0
1.583480730E-1,-8.377204537E-1,-9.060744286E0,-2.236287594E0
1.608202610E-1,-8.904209733E-1,-9.204473495E0,-2.154841185E0
1.632923960E-1,-7.730425596E-1,-9.283523560E0,-1.979971409E0
1.657645840E-1,-7.107601166E-1,-9.317060471E0,-1.687723041E0
1.682367190E-1,-6.820143461E-1,-9.398507118E0,-1.555971622E0
1.707089070E-1,-6.580595970E-1,-9.470371246E0,-1.426615715E0
1.731810420E-1,-7.107601166E-1,-9.594936371E0,-1.177486062E0
1.756532300E-1,-6.820143461E-1,-9.666800499E0,-1.115203619E0
1.781254170E-1,-6.700369716E-1,-9.702733040E0,-8.349325657E-1
1.805976050E-1,-6.365002394E-1,-9.700337410E0,-6.720400453E-1
1.830697400E-1,-5.598449707E-1,-9.729083061E0,-5.139384866E-1
1.855792710E-1,-4.927715659E-1,-9.681173325E0,-3.462549746E-1
1.880514590E-1,-3.921614587E-1,-9.611704826E0,-2.672041655E-1
1.905236460E-1,-2.915513515E-1,-9.582958221E0,-1.474302411E-1
1.929957820E-1,-2.484327555E-1,-9.592540741E0,1.112814397E-1
1.954679690E-1,-4.242157936E-2,-9.630868912E0,1.783548146E-1
1.979401050E-1,2.019172311E-1,-9.621286392E0,1.208633333E-1
2.004122920E-1,3.408550024E-1,-9.484745026E0,1.687729210E-1
2.028844280E-1,3.887645006E-1,-9.293106079E0,3.340609670E-1
2.053566150E-1,4.007419348E-1,-9.096676826E0,3.939478993E-1
2.078288030E-1,4.342786074E-1,-8.876292229E0,3.532247543E-1
2.103009900E-1,5.588434935E-1,-8.766100883E0,4.155071974E-1
2.127731250E-1,6.211259365E-1,-8.682258606E0,4.873715639E-1
2.152519800E-1,6.762219667E-1,-8.545716286E0,5.544449687E-1
2.177241670E-1,7.552727461E-1,-8.428339005E0,5.688178539E-1
2.201963550E-1,8.007868528E-1,-8.349287987E0,5.807952285E-1
2.226684900E-1,8.486963511E-1,-8.265445709E0,6.838008165E-1
2.251406780E-1,8.918149471E-1,-8.169626236E0,7.820154428E-1
2.276128130E-1,8.942104578E-1,-8.092970848E0,8.371113539E-1
2.300850000E-1,9.013969898E-1,-7.949243069E0,8.634616137E-1
2.325571360E-1,9.421200752E-1,-7.882169247E0,8.922073841E-1
2.350293230E-1,8.702557087E-1,-7.834259987E0,1.031145096E0
2.375015110E-1,8.079732656E-1,-7.767186642E0,1.069472909E0
2.399736980E-1,7.936003208E-1,-7.736045837E0,1.057495475E0
2.424458340E-1,7.361088991E-1,-7.740836620E0,1.129359722E0
2.449313550E-1,6.402897835E-1,-7.748023033E0,1.251529217E0
2.474034900E-1,5.468660593E-1,-7.807909489E0,1.328184485E0
2.498756780E-1,5.300977230E-1,-7.870192051E0,1.251529217E0
2.523478130E-1,4.534424543E-1,-7.973197460E0,1.277879477E0
2.548200000E-1,4.462560415E-1,-8.073807716E0,1.287461400E0
2.572921360E-1,4.558379650E-1,-8.198371887E0,1.141337276E0
2.597643230E-1,4.007419348E-1,-8.363660812E0,1.146128178E0
2.622365110E-1,2.618041635E-1,-8.543321609E0,1.225179076E0
2.647086980E-1,2.809680104E-1,-8.737354279E0,1.162896514E0
2.671808340E-1,2.234764695E-1,-8.948156357E0,1.146128178E0
2.696530210E-1,1.899397969E-1,-9.058349609E0,1.095823169E0
2.721252090E-1,9.651619196E-2,-9.247591972E0,1.050309062E0
2.746364590E-1,1.013070941E-1,-9.422461510E0,9.832355976E-1
2.771086460E-1,2.704727650E-2,-9.635659218E0,8.562753201E-1
2.795807820E-1,5.487978458E-3,-9.767410278E0,7.963883877E-1
2.820529690E-1,-4.721260071E-2,-9.942280769E0,6.885917783E-1
2.845251570E-1,-9.512215853E-2,-1.007642746E1,5.544449687E-1
2.869972920E-1,-1.118904352E-1,-1.027046204E1,4.442529678E-1
2.894694800E-1,-1.262633204E-1,-1.038544464E1,3.388518691E-1
2.919416150E-1,-2.388508320E-1,-1.048605442E1,2.214734405E-1
2.944138030E-1,-2.532236874E-1,-1.053875446E1,1.352362186E-1
2.968859900E-1,-3.298790157E-1,-1.059624672E1,-3.484275937E-2
2.993581780E-1,-4.256981611E-1,-1.061301422E1,-9.952068329E-2
3.018303130E-1,-4.975625277E-1,-1.064655209E1,-2.121081650E-1
3.043384380E-1,-5.718223453E-1,-1.061541080E1,-3.462549746E-1
3.068106250E-1,-7.059691548E-1,-1.056750107E1,-4.756107926E-1
3.092828130E-1,-7.778335214E-1,-1.049324036E1,-5.642434955E-1
3.117549480E-1,-8.520933390E-1,-1.040939903E1,-5.714299083E-1
3.142271360E-1,-1.024567842E0,-1.030878830E1,-6.624581218E-1
3.166992710E-1,-1.043731570E0,-1.017703724E1,-7.223451138E-1
3.191714590E-1,-1.065290928E0,-1.008600998E1,-8.349325657E-1
3.216435940E-1,-1.149132729E0,-9.990190506E0,-8.852376342E-1
3.241157820E-1,-1.194646835E0,-9.891975403E0,-8.564918637E-1
3.265879690E-1,-1.242556334E0,-9.817715645E0,-8.325371146E-1
3.290601570E-1,-1.280884027E0,-9.726687431E0,-8.804466724E-1
3.315323440E-1,-1.271301985E0,-9.676383018E0,-8.684692979E-1
3.340359900E-1,-1.278488517E0,-9.614100456E0,-7.774410844E-1
3.365081780E-1,-1.161110044E0,-9.645241737E0,-8.157687187E-1
3.389803650E-1,-1.106014013E0,-9.647636414E0,-7.534862757E-1
3.414525000E-1,-1.089245677E0,-9.762619972E0,-7.558817863E-1
3.439246880E-1,-1.062895417E0,-9.834485054E0,-7.103676796E-1
3.463968230E-1,-1.079663754E0,-9.932698250E0,-6.888083816E-1
3.488690110E-1,-1.079663754E0,-1.006924057E1,-7.822320461E-1
3.513411460E-1,-9.910310507E-1,-1.019620132E1,-8.469099998E-1
3.538133340E-1,-9.215621948E-1,-1.039263058E1,-8.660737872E-1
3.562855210E-1,-8.377204537E-1,-1.064415550E1,-9.618929029E-1
3.587577090E-1,-8.209521174E-1,-1.083579445E1,-1.009802461E0
3.612298440E-1,-7.562742233E-1,-1.102024555E1,-1.086457849E0
3.636889070E-1,-6.915962696E-1,-1.120948887E1,-1.165508628E0
3.661610420E-1,-6.772233844E-1,-1.142508125E1,-1.225395560E0
3.686332300E-1,-7.275284529E-1,-1.157120609E1,-1.242163897E0
3.711053650E-1,-6.772233844E-1,-1.157120609E1,-1.342774034E0
3.735775530E-1,-7.011781931E-1,-1.154485607E1,-1.349960446E0
3.760496880E-1,-7.083646059E-1,-1.147059536E1,-1.354751348E0
3.785218750E-1,-7.538787127E-1,-1.142029095E1,-1.347564936E0
3.809940630E-1,-7.059691548E-1,-1.128374863E1,-1.304446340E0
3.834662500E-1,-7.586696744E-1,-1.119032478E1,-1.203836203E0
3.859383860E-1,-8.209521174E-1,-1.106815529E1,-1.191858888E0
3.884105730E-1,-7.802289724E-1,-1.095556736E1,-1.208627224E0
3.908827610E-1,-8.305340409E-1,-1.085974884E1,-1.103226185E0
3.934130730E-1,-8.305340409E-1,-1.078309345E1,-1.009802461E0
3.958852610E-1,-8.137656450E-1,-1.075913906E1,-8.972150087E-1
3.983574480E-1,-7.514832616E-1,-1.072081184E1,-8.780511618E-1
4.008295840E-1,-7.059691548E-1,-1.071122932E1,-8.157687187E-1
4.033017710E-1,-5.502630472E-1,-1.068966961E1,-6.744355559E-1
4.057739070E-1,-4.544439018E-1,-1.075434780E1,-5.546615720E-1
4.082460940E-1,-3.777885735E-1,-1.084058571E1,-4.061419368E-1
4.107182300E-1,-3.131106794E-1,-1.095077801E1,-3.893735707E-1
4.131904170E-1,-1.621955037E-1,-1.111366940E1,-4.181193113E-1
4.156626050E-1,-4.242157936E-2,-1.131009865E1,-4.205147922E-1
4.181347920E-1,4.142016172E-2,-1.147059536E1,-3.534414172E-1
4.206069280E-1,1.611940265E-1,-1.169816685E1,-3.462549746E-1
4.230691150E-1,3.025273085E-1,-1.189459610E1,-4.588424563E-1
4.255412500E-1,4.031373262E-1,-1.208144283E1,-4.732153416E-1
4.280134380E-1,4.989564419E-1,-1.224912643E1,-4.732153416E-1
4.304856250E-1,7.073632479E-1,-1.235692310E1,-7.870230079E-1
4.329577610E-1,8.510918617E-1,-1.242878723E1,-1.110412598E0
4.354298960E-1,9.756567478E-1,-1.243357849E1,-1.278096080E0
4.379020840E-1,1.174481511E0,-1.238806438E1,-1.534412265E0
4.403742710E-1,1.346956015E0,-1.230901337E1,-1.704491258E0
4.428464590E-1,1.552967072E0,-1.210779381E1,-1.996739626E0
4.453185940E-1,1.747000694E0,-1.196885586E1,-2.257846832E0
4.477907820E-1,1.897916079E0,-1.185387230E1,-2.468648911E0
4.502629690E-1,2.020085573E0,-1.165983868E1,-2.825575113E0
4.527578650E-1,2.027271748E0,-1.146101379E1,-3.335812330E0
4.552300000E-1,1.826051712E0,-1.130530739E1,-3.834071636E0
4.577021880E-1,1.672740936E0,-1.118074226E1,-4.629370689E0
4.601743230E-1,1.399656534E0,-1.108492374E1,-5.542048454E0
4.626465110E-1,1.093035221E0,-1.111846066E1,-6.188827038E0
4.651186460E-1,6.546626091E-1,-1.119272041E1,-6.969753265E0
4.675908340E-1,2.210810781E-1,-1.120469761E1,-7.748283863E0
4.700630210E-1,-2.316643894E-1,-1.124542046E1,-8.220192909E0
4.725352090E-1,-6.580595970E-1,-1.139633656E1,-8.522023201E0
4.750073440E-1,-1.041336179E0,-1.162151146E1,-8.541186333E0
4.774795320E-1,-1.319211721E0,-1.182033539E1,-8.351943970E0
4.799516670E-1,-1.556364059E0,-1.200957870E1,-7.973458767E0
4.824523440E-1,-1.728838563E0,-1.213653851E1,-7.554250240E0
4.849244800E-1,-1.843821406E0,-1.228984928E1,-7.060781002E0
4.873966670E-1,-1.927663088E0,-1.255095673E1,-6.248714447E0
4.898688030E-1,-1.949222565E0,-1.283362389E1,-5.462997437E0
4.923409900E-1,-1.788725376E0,-1.327678680E1,-4.734771729E0
4.948131250E-1,-1.704883695E0,-1.407927132E1,-3.905936003E0
4.972853130E-1,-1.458149433E0,-1.494883060E1,-3.287902594E0
4.997575000E-1,-1.113200426E0,-1.575371170E1,-2.689033031E0
5.022296880E-1,-9.335396290E-1,-1.645558739E1,-1.788332939E0
5.047018750E-1,-8.952119350E-1,-1.692270660E1,-1.045734644E0
5.071740110E-1,-9.550989270E-1,-1.731316948E1,-4.923791289E-1
5.096461460E-1,-1.026963234E0,-1.766290855E1,1.687729210E-1
5.121382820E-1,-1.072477341E0,-1.798869514E1,5.927726626E-1
5.146104170E-1,-1.038940668E0,-1.813242340E1,8.610662222E-1
5.170826050E-1,-7.466922998E-1,-1.807253647E1,1.016772270E0
5.195547400E-1,-2.292689085E-1,-1.773956490E1,1.050309062E0
5.220269280E-1,6.187305450E-1,-1.718141937E1,1.050309062E0
5.244990630E-1,1.653577328E0,-1.654661560E1,1.222783566E0
5.269712500E-1,2.669260025E0,-1.591181278E1,1.495867968E0
5.294434380E-1,3.634637833E0,-1.537762165E1,1.711461186E0
5.319156250E-1,4.410772800E0,-1.490092182E1,2.317517281E0
5.343877610E-1,5.179721355E0,-1.449368954E1,2.913991213E0
5.368599480E-1,5.771405220E0,-1.402657127E1,3.536815882E0
5.393320840E-1,6.255291462E0,-1.353310299E1,4.102148056E0
5.418275000E-1,6.636172295E0,-1.332469654E1,4.502193451E0
5.442996360E-1,6.837392330E0,-1.319773579E1,4.784859657E0
5.467718230E-1,7.014657974E0,-1.330074120E1,4.782464504E0
5.492439590E-1,7.242228508E0,-1.332230091E1,4.643526554E0
5.517161460E-1,7.642273903E0,-1.322408676E1,4.619571686E0
5.541882820E-1,8.042318344E0,-1.314743042E1,4.406374454E0
5.566604690E-1,8.430385590E0,-1.308754349E1,4.030284405E0
5.591326570E-1,8.775335312E0,-1.296537495E1,3.687730789E0
5.616047920E-1,8.899900436E0,-1.288871956E1,3.347573042E0
5.640769800E-1,9.043627739E0,-1.269468594E1,2.801403761E0
5.665491670E-1,8.998113632E0,-1.251741982E1,2.276793957E0
5.690213030E-1,8.842408180E0,-1.230422306E1,1.682715416E0
5.715172400E-1,8.547763824E0,-1.207665157E1,1.146128178E0
5.739893750E-1,8.102205276E0,-1.183710480E1,6.263093352E-1
5.764615630E-1,7.481776237E0,-1.165265274E1,3.005242944E-1
5.789336980E-1,6.770319462E0,-1.148975945E1,-1.567892730E-2
5.814058860E-1,6.159472466E0,-1.133884430E1,-3.917690516E-1
5.838780210E-1,5.828896523E0,-1.119511604E1,-6.049666405E-1
5.863502090E-1,5.745054722E0,-1.119511604E1,-8.061868548E-1
5.888223960E-1,5.529461384E0,-1.123104858E1,-8.013958335E-1
5.912945840E-1,5.275540352E0,-1.129093456E1,-7.031812668E-1
5.937667190E-1,4.777280807E0,-1.131249428E1,-6.145485640E-1
5.962389070E-1,3.910118103E0,-1.131968021E1,-3.342775702E-1
5.987110420E-1,3.105237246E0,-1.128614426E1,-3.726052344E-1
6.012067190E-1,2.360243320E0,-1.122625732E1,-5.738254189E-1
6.036788550E-1,1.593690157E0,-1.123583889E1,-8.972150087E-1
6.061510420E-1,9.061878920E-1,-1.125021172E1,-1.172695041E0
6.086231780E-1,3.600188494E-1,-1.137717247E1,-1.493689060E0
6.110953650E-1,5.579304695E-2,-1.143945503E1,-2.023089886E0
6.135675000E-1,-2.053141296E-1,-1.142987251E1,-2.607586622E0
6.160396880E-1,-2.412463129E-1,-1.146340942E1,-2.873484850E0
6.185118750E-1,-1.813593507E-1,-1.147778225E1,-3.144174099E0
6.209840110E-1,-2.220824659E-1,-1.145143223E1,-3.371744156E0
6.234561980E-1,-4.185117483E-1,-1.151610947E1,-3.326230288E0
6.259283860E-1,-7.035736442E-1,-1.169816685E1,-3.160942316E0
6.284005210E-1,-1.074872851E0,-1.194969177E1,-2.794434071E0
6.308961980E-1,-1.364725828E0,-1.201436996E1,-2.701010227E0
6.333683340E-1,-1.532409191E0,-1.197125053E1,-2.729755878E0
6.358405210E-1,-1.587505341E0,-1.194490051E1,-2.703405619E0
6.383126570E-1,-1.532409191E0,-1.186105824E1,-2.698614836E0
6.407848440E-1,-1.436590075E0,-1.171014404E1,-2.681846380E0
6.432569800E-1,-1.266511202E0,-1.164546585E1,-2.432716846E0
6.457291670E-1,-1.175482988E0,-1.162869740E1,-2.051835775E0
6.482013550E-1,-9.598898888E-1,-1.148257351E1,-1.577530861E0
6.506735420E-1,-8.425114155E-1,-1.124062920E1,-1.062503099E0
6.531456780E-1,-1.084454775E0,-1.103940964E1,-7.439044118E-1
6.556178650E-1,-1.654578686E0,-1.089807701E1,-6.193395257E-1
6.580900000E-1,-2.013900280E0,-1.093879986E1,-4.851927161E-1
6.605861460E-1,-1.973177314E0,-1.094838142E1,-3.390685320E-1
6.630582820E-1,-1.858194232E0,-1.099150085E1,-1.019161493E-1
6.655304690E-1,-1.616250992E0,-1.087891293E1,3.223063052E-2
6.680026050E-1,-1.393471479E0,-1.069685650E1,-8.754327893E-2
6.704747920E-1,-1.180273890E0,-1.054115105E1,-8.754327893E-2
6.729469280E-1,-9.622853398E-1,-1.034711647E1,3.941707313E-2
6.754191150E-1,-7.323194146E-1,-1.006684589E1,3.941707313E-2
6.778913030E-1,-6.005680561E-1,-9.805738449E0,1.160723716E-1
6.803634900E-1,-4.209071994E-1,-9.501512527E0,2.142869979E-1
6.828356250E-1,-2.723875344E-1,-9.168541908E0,3.101061583E-1
6.853078130E-1,-1.094949841E-1,-8.742145538E0,3.867614269E-1
6.877799480E-1,-7.116734982E-2,-8.409174919E0,5.879816413E-1
6.902761980E-1,-1.741729081E-1,-8.092970848E0,7.892018557E-1
6.927483340E-1,-1.526135802E-1,-7.860610485E0,8.419023752E-1
6.952205210E-1,-1.310543418E-1,-7.577944279E0,9.449080229E-1
6.976926570E-1,-1.550090909E-1,-7.374328136E0,1.059890866E0
7.001648440E-1,-1.262633204E-1,-7.153944016E0,1.215597034E0
7.026369800E-1,-4.960799217E-2,-6.823368073E0,1.277879477E0
7.051091670E-1,-3.763061762E-2,-6.612565994E0,1.431190133E0
7.075813550E-1,1.013070941E-1,-6.394577503E0,1.586896300E0
7.100535420E-1,8.932971954E-2,-6.138261318E0,1.778534412E0
7.125256780E-1,2.019172311E-1,-5.903504848E0,2.025268793E0
7.149978650E-1,2.785725594E-1,-5.613651752E0,2.183370352E0
7.174700000E-1,3.863691092E-1,-5.455550194E0,2.394172430E0
7.199658860E-1,4.773972034E-1,-5.182465553E0,2.564251423E0
7.224380210E-1,6.091486216E-1,-4.887821674E0,2.566647053E0
7.249102090E-1,7.888095379E-1,-4.636296272E0,2.664861441E0
7.273823440E-1,8.151597977E-1,-4.482985497E0,2.760680676E0
7.298545320E-1,1.033148289E0,-4.305720329E0,2.825358629E0
7.323266670E-1,1.181667924E0,-4.058986187E0,2.799008369E0
7.347988550E-1,1.356537819E0,-3.934421062E0,2.801403761E0
7.372710420E-1,1.524221182E0,-3.790692329E0,2.746307850E0
7.397432300E-1,1.706277847E0,-3.594263077E0,2.743912220E0
7.422153650E-1,1.938639164E0,-3.419393063E0,2.660070419E0
7.446875530E-1,2.053622007E0,-3.254105091E0,2.643302202E0
7.471597400E-1,2.173395872E0,-3.110376358E0,2.497178078E0
7.496556250E-1,2.259633303E0,-2.992998123E0,2.458850384E0
7.521277610E-1,2.274006128E0,-2.820523739E0,2.446872950E0
7.545999480E-1,2.317124844E0,-2.719913483E0,2.339076519E0
7.570720840E-1,2.475226164E0,-2.619303226E0,2.149833679E0
7.595442710E-1,2.525531530E0,-2.516297817E0,1.994127512E0
7.620164070E-1,2.698005676E0,-2.377359867E0,1.768952608E0
7.644885940E-1,2.719565153E0,-2.233631134E0,1.639596820E0
7.669607820E-1,2.705192327E0,-2.154580593E0,1.483890653E0
7.694329690E-1,2.791429520E0,-2.140207291E0,1.280274987E0
7.719051050E-1,2.868084669E0,-2.056365967E0,1.083845735E0
7.743772920E-1,2.805802345E0,-2.010851860E0,9.880266190E-1
7.768494280E-1,2.777056694E0,-2.006060600E0,9.305351973E-1
7.793456780E-1,2.784243107E0,-1.991687894E0,8.371113539E-1
7.818178650E-1,2.908807993E0,-1.972524047E0,6.478686333E-1
7.842900000E-1,2.911203384E0,-1.989292502E0,5.951680541E-1
7.867621360E-1,2.918389797E0,-1.989292502E0,4.394620061E-1
7.892343230E-1,2.911203384E0,-2.015642643E0,3.532247543E-1
7.917064590E-1,2.927971840E0,-2.063552380E0,4.059253335E-1
7.941786460E-1,2.939949274E0,-2.121043682E0,2.406372875E-1
7.966508340E-1,3.004626989E0,-2.221653938E0,1.067133248E-2
7.991230210E-1,2.975881338E0,-2.336636543E0,-1.019161493E-1
8.015951570E-1,3.004626989E0,-2.384546280E0,-1.138935536E-1
8.040673440E-1,3.026186466E0,-2.439642429E0,-1.234754622E-1
8.065394800E-1,3.062118530E0,-2.518693447E0,-3.797916770E-1
8.090356250E-1,3.174705982E0,-2.592953205E0,-5.139384866E-1
8.115077610E-1,3.220220327E0,-2.667212963E0,-6.648536325E-1
8.139799480E-1,3.210638285E0,-2.763031960E0,-8.085823059E-1
8.164520840E-1,3.260943174E0,-2.796568871E0,-9.475200176E-1
8.189242710E-1,3.311248302E0,-2.854060173E0,-1.122390032E0
