"Time (s)","X (rad/s)","Y (rad/s)","Z (rad/s)"
5.023000005E-3,1.942746043E-1,-2.837351263E-1,2.497520745E-1
1.506900002E-2,1.387396455E-1,-4.512652159E-1,1.731507927E-1
2.511500003E-2,-3.952091932E-2,-5.314493179E-1,1.086146608E-1
3.516100004E-2,-2.415068001E-1,-5.503010154E-1,5.521529540E-2
4.520600004E-2,-4.204952121E-1,-4.383097589E-1,5.174545944E-2
5.525200005E-2,-5.672411919E-1,-2.667722106E-1,6.622926146E-2
6.529800000E-2,-7.009838223E-1,-1.389774680E-1,1.029510573E-1
7.534400001E-2,-7.780143619E-1,7.025778294E-2,1.754288077E-1
8.539000002E-2,-9.022087455E-1,1.756337434E-1,3.149326444E-1
9.543600003E-2,-9.900639057E-1,9.113998711E-2,4.523178935E-1
1.054820000E-1,-1.022977948E0,-3.722464666E-2,4.177623093E-1
1.155280001E-1,-1.075091600E0,-7.233095914E-2,3.452682197E-1
1.255740000E-1,-1.152429342E0,3.481600434E-2,1.957407892E-1
1.356200000E-1,-1.091638207E0,-2.257858962E-1,-2.363933325E-1
1.456660000E-1,-8.279927373E-1,-5.391592383E-1,-4.463577569E-1
1.557120000E-1,-4.902099669E-1,-7.378234267E-1,-3.311053216E-1
1.657580000E-1,-1.575018018E-1,-7.833434939E-1,-1.299599707E-1
1.758040000E-1,1.854236275E-1,-7.886451483E-1,-2.894877270E-2
1.858500000E-1,4.379687905E-1,-7.502413392E-1,-9.572726488E-2
1.958960000E-1,5.445743799E-1,-7.826666236E-1,-2.251150310E-1
2.059420000E-1,5.382773280E-1,-8.577978611E-1,-3.144968450E-1
2.159880000E-1,4.456670284E-1,-8.592698574E-1,-3.191898763E-1
2.260330000E-1,2.690259516E-1,-7.424780130E-1,-3.021555245E-1
2.360790001E-1,5.910224840E-2,-6.084362268E-1,-3.220500350E-1
2.461250000E-1,-1.557959318E-1,-4.634582698E-1,-3.690977097E-1
2.561710000E-1,-3.298398852E-1,-3.530560136E-1,-4.171761274E-1
2.662170000E-1,-4.597558081E-1,-1.627190858E-1,-4.891006649E-1
2.762630000E-1,-5.465511680E-1,2.322362661E-1,-6.543157101E-1
2.863090000E-1,-7.139974236E-1,1.227296591E0,-1.237660050E0
2.963550000E-1,-9.124186039E-1,2.197452068E0,-1.809304118E0
3.064010000E-1,-1.011345863E0,2.910451889E0,-1.869987965E0
3.164470000E-1,-1.030129433E0,3.720684052E0,-1.778597116E0
3.264930000E-1,-9.654321671E-1,4.186424255E0,-1.541239381E0
3.365390000E-1,-8.103638887E-1,4.133012772E0,-1.374638557E0
3.465850001E-1,-5.978084803E-1,3.805602789E0,-1.325250268E0
3.566310000E-1,-2.728512287E-1,3.108715534E0,-1.193062663E0
3.666770000E-1,5.049886554E-2,2.232989550E0,-1.074037194E0
3.767230000E-1,3.563457727E-1,1.081849933E0,-1.025144219E0
3.867727500E-1,6.014569998E-1,6.075110286E-2,-1.107060671E0
3.968187500E-1,7.352197170E-1,-6.365209818E-1,-1.257183313E0
4.068647500E-1,6.898679733E-1,-9.646229148E-1,-1.294615865E0
4.169097500E-1,1.733568758E-1,-5.027801394E-1,-1.005571961E0
4.269557500E-1,-9.414551258E-1,8.406940699E-1,-5.024091601E-1
4.370017500E-1,-1.775749087E0,1.864346266E0,-3.014544547E-1
4.470477500E-1,-1.686761141E0,1.581179261E0,-3.763502538E-1
4.570937500E-1,-1.070529699E0,1.028620243E0,-5.048663020E-1
4.671397500E-1,-5.629386306E-1,1.018073559E0,-5.645096302E-1
4.771857500E-1,-2.603953481E-1,1.076532006E0,-5.833145976E-1
4.872317500E-1,2.330720983E-2,1.132606745E0,-6.038142443E-1
4.972777501E-1,2.223429233E-1,1.353906631E0,-6.098343134E-1
5.073237500E-1,2.913939059E-1,1.628672957E0,-6.681743264E-1
5.173697500E-1,3.109382093E-1,1.896377563E0,-8.032041788E-1
5.274157500E-1,3.864987493E-1,2.225043058E0,-1.111377597E0
5.374617500E-1,6.025698185E-1,2.653539419E0,-2.078634262E0
5.475077500E-1,9.454334378E-1,3.086370707E0,-2.789546490E0
5.575537501E-1,1.000966311E0,3.104993582E0,-3.161159039E0
5.675997500E-1,8.521484137E-1,2.899520159E0,-3.088304520E0
5.776457500E-1,5.575960279E-1,2.902019739E0,-2.483985186E0
5.876917500E-1,1.806551516E-1,2.667719126E0,-1.764908552E0
5.977377500E-1,-1.515261233E-1,2.283377647E0,-1.472609401E0
6.077827500E-1,-3.994080722E-1,1.963618875E0,-1.521771550E0
6.178287501E-1,-5.366052389E-1,1.855446100E0,-1.695778728E0
6.278747500E-1,-5.515247583E-1,1.775605917E0,-1.825077057E0
6.379207500E-1,-4.984191656E-1,1.556514740E0,-1.825510025E0
6.479667500E-1,-4.660878479E-1,1.305287600E0,-1.719542027E0
6.580127500E-1,-5.369480252E-1,9.415029287E-1,-1.681119680E0
6.680587500E-1,-7.058552504E-1,8.279659748E-1,-1.823327422E0
6.781047501E-1,-8.807871938E-1,9.849423766E-1,-2.077408075E0
6.881507500E-1,-9.494765401E-1,9.116646647E-1,-2.365875959E0
6.981967500E-1,-8.703662753E-1,8.985127211E-1,-2.817634583E0
7.082427500E-1,-4.692816734E-1,1.272949457E0,-3.538167715E0
7.182887500E-1,6.129318848E-2,1.714950204E0,-3.795121908E0
7.283347500E-1,4.400088191E-1,2.064835310E0,-3.504135370E0
7.383807500E-1,6.915232539E-1,2.598047972E0,-3.007031202E0
7.484267500E-1,9.280984998E-1,3.201142788E0,-2.750777721E0
7.584727500E-1,1.209820867E0,3.509308577E0,-2.903536558E0
7.685187500E-1,1.573942065E0,3.551791668E0,-3.316755056E0
7.785647500E-1,1.982266188E0,3.605971575E0,-3.727835894E0
7.886097500E-1,2.307254791E0,3.690445662E0,-4.123786449E0
7.986557501E-1,2.570087194E0,3.683331728E0,-4.647002220E0
8.087017500E-1,2.800932646E0,3.677952290E0,-5.288837910E0
8.187477500E-1,2.902880669E0,3.633292198E0,-5.691655159E0
8.287937500E-1,2.963558674E0,3.494228840E0,-5.629899979E0
8.388397500E-1,3.040155411E0,3.020484686E0,-5.225566864E0
8.488857500E-1,3.136777401E0,2.254242897E0,-4.746939182E0
8.589317500E-1,3.125468493E0,1.582202077E0,-4.241762161E0
8.689777500E-1,3.118257999E0,9.762085676E-1,-3.749619246E0
8.790237500E-1,3.150499821E0,3.911844194E-1,-3.279457808E0
8.890697500E-1,3.198517084E0,-3.802021593E-2,-2.803948641E0
8.991157500E-1,3.244847298E0,-1.915244758E-1,-2.298883677E0
9.091617501E-1,3.253409863E0,-1.971815675E-1,-1.862504959E0
9.192077500E-1,3.215635777E0,-1.741948724E-1,-1.533385754E0
9.292537500E-1,3.142439842E0,-1.246858910E-1,-1.249801159E0
9.392997500E-1,3.070176125E0,-9.009106457E-2,-1.019206166E0
9.493457500E-1,3.017124176E0,-1.153351739E-1,-8.518339396E-1
9.593917500E-1,3.014539957E0,-1.238000244E-1,-6.718501449E-1
9.694377501E-1,3.103574991E0,-4.517313093E-2,-4.764138162E-1
9.794827500E-1,3.221505404E0,1.252915561E-1,-3.486206234E-1
9.895287500E-1,2.975788355E0,7.551171780E-1,-2.189129591E-1
9.995747500E-1,1.713123560E0,2.140655518E0,-6.011967361E-2
1.009620750E0,4.024281502E-1,2.536638737E0,-1.780734807E-1
1.019666750E0,1.512450576E-1,2.010424852E0,-4.770017564E-1
1.029712750E0,5.166504979E-1,8.705757260E-1,-5.726787448E-1
1.039758750E0,6.835269928E-1,-9.507264942E-3,-6.588503122E-1
1.049804750E0,5.731781125E-1,-5.029076934E-1,-6.889882684E-1
1.059850750E0,6.799969673E-1,-9.155048728E-1,-6.685823202E-1
1.069896750E0,7.441807389E-1,-1.190578580E0,-7.215600014E-1
1.079942750E0,8.030750751E-1,-1.503857017E0,-7.180659771E-1
1.089988750E0,8.438869715E-1,-1.587406754E0,-6.832406521E-1
1.100034750E0,5.950038433E-1,-1.339689732E0,-6.638733745E-1
1.110080750E0,5.944432616E-1,-1.337801337E0,-6.633120179E-1
1.120126750E0,6.894327998E-1,-1.500894666E0,-6.597842574E-1
1.130172750E0,5.788474083E-1,-1.418748975E0,-6.074310541E-1
1.140218750E0,7.219601274E-1,-1.604484081E0,-5.217963457E-1
1.150264750E0,3.945764303E-1,-1.610125899E0,-6.404452324E-1
1.160310750E0,-5.530904233E-2,-1.853544474E0,-6.696011424E-1
1.170355750E0,4.822175205E-1,-2.976790428E0,-7.437017560E-1
1.180401750E0,1.573226333E0,-3.719613314E0,-9.911245108E-1
1.190447750E0,-1.747791171E-1,-2.341256380E0,-8.618106842E-1
1.200493750E0,-2.848692238E-1,-1.922059655E0,-8.178074360E-1
1.210539750E0,2.606827915E-1,-1.644094944E0,-9.436817169E-1
1.220585750E0,4.837838113E-1,-8.871408105E-1,-8.365561366E-1
1.230631750E0,4.797440469E-1,-3.780386746E-1,-7.546005845E-1
1.240677750E0,5.031434894E-1,-4.191836715E-1,-7.109366059E-1
1.250723750E0,4.222627282E-1,-6.344467402E-1,-6.106283665E-1
1.260769750E0,3.118004501E-1,-5.479468703E-1,-5.248824358E-1
1.270815750E0,2.879177332E-1,-2.570990324E-1,-5.355587602E-1
1.280861750E0,2.308387607E-1,1.625223607E-1,-6.675285697E-1
1.290907750E0,1.457608938E-1,6.423976421E-1,-8.293864727E-1
1.300953750E0,1.047944054E-1,1.000429988E0,-8.134732246E-1
1.310999750E0,-1.075255796E-1,1.377256393E0,-8.995169997E-1
1.321045750E0,-4.276514649E-1,1.622034907E0,-1.107328653E0
1.331091750E0,-6.577078104E-1,1.433808565E0,-1.038719535E0
1.341137750E0,-1.076181293E0,1.303182006E0,-1.260970592E0
1.351182750E0,-1.664277673E0,1.206673265E0,-1.589447021E0
1.361228750E0,-1.854617357E0,1.138633490E0,-1.804739356E0
1.371274750E0,-1.823490381E0,1.254510522E0,-1.604134679E0
1.381318250E0,-1.551953197E0,1.471260071E0,-1.202318192E0
1.391364250E0,-1.633423328E0,1.392450213E0,-7.723034620E-1
1.401410250E0,-2.398663044E0,5.481506586E-1,-4.610681832E-1
1.411456250E0,-2.878509521E0,-6.468951702E-1,-1.447144896E-1
1.421502250E0,-2.807501793E0,-1.008600354E0,-2.912653424E-2
1.431548250E0,-2.703979731E0,-5.562648177E-1,-1.725561321E-1
1.441594250E0,-2.418189526E0,1.343792379E-1,-3.442131579E-1
1.451640250E0,-1.851281404E0,7.473803163E-1,-5.378329754E-1
1.461686250E0,-1.281252384E0,1.198000789E0,-7.177873254E-1
1.471732250E0,-9.478621483E-1,1.475405693E0,-8.816529512E-1
1.481778250E0,-7.790380120E-1,1.602141023E0,-9.376758933E-1
1.491824250E0,-6.609545350E-1,1.684033513E0,-8.943787813E-1
1.501870250E0,-6.295338869E-1,1.783358812E0,-7.460033298E-1
1.511916250E0,-6.628860235E-1,1.733404875E0,-5.831345320E-1
1.521962250E0,-7.167323828E-1,1.570005417E0,-4.689973891E-1
1.532008250E0,-7.016865611E-1,1.347277522E0,-4.121330678E-1
1.542054250E0,-6.105475426E-1,1.251511574E0,-3.497543931E-1
1.552099250E0,-4.870288670E-1,1.344437242E0,-3.037163317E-1
1.562145250E0,-3.248819113E-1,1.368366599E0,-3.078082502E-1
1.572191250E0,-2.229955047E-1,1.362083316E0,-3.066196740E-1
1.582237250E0,-9.516649693E-2,1.453709126E0,-3.094620407E-1
1.592283250E0,-1.193152927E-2,1.525220513E0,-3.815399706E-1
1.602329250E0,-1.123222522E-2,1.571797848E0,-4.644385278E-1
1.612375250E0,-6.587922573E-2,1.700481296E0,-5.510882139E-1
1.622421250E0,-1.953235567E-1,1.703831077E0,-6.917474866E-1
1.632467250E0,-4.662147164E-1,1.651843190E0,-7.906282544E-1
1.642513250E0,-9.928982854E-1,1.792100787E0,-1.160026312E0
1.652559250E0,-1.463308454E0,1.032056689E0,-8.269617558E-1
1.662605250E0,-1.453257442E0,8.849965334E-1,-7.630890608E-1
1.672651250E0,-1.539395213E0,1.388821602E0,-9.128628373E-1
1.682697250E0,-1.830003381E0,1.377699733E0,-8.973187208E-1
1.692743250E0,-2.187288284E0,1.340651512E0,-8.697646260E-1
1.702789250E0,-2.545499563E0,1.412455201E0,-6.948902607E-1
1.712835250E0,-2.861652136E0,1.591661692E0,-4.131664336E-1
1.722881250E0,-3.340700388E0,1.901933312E0,-1.690750569E-1
1.732927250E0,-3.628911972E0,1.181178808E0,3.781299889E-1
1.742973250E0,-2.655576229E0,5.109263062E-1,7.132117152E-1
1.753018250E0,-3.572472811E0,1.235397160E-1,1.961803250E-2
1.763064250E0,-4.209906578E0,8.514866233E-2,-1.151617989E-1
1.773110250E0,-3.941351414E0,2.319016159E-1,4.426335394E-1
1.783156250E0,-3.301853180E0,1.447699666E-1,7.058374882E-1
1.793202250E0,-2.526456833E0,-6.304341555E-1,3.736934364E-1
1.803248250E0,-1.443219900E0,-5.714101195E-1,4.691029489E-1
1.813294250E0,-5.180006623E-1,1.971659213E-1,5.281478763E-1
1.823340250E0,4.985180125E-2,7.235659361E-1,4.979647696E-1
1.833386250E0,3.471465707E-1,9.070984721E-1,4.577358663E-1
1.843432250E0,3.973125517E-1,8.602412343E-1,3.949369192E-1
1.853478250E0,2.479065508E-1,2.531995177E-1,5.012787580E-1
1.863524250E0,4.957454652E-2,-1.655935287E0,4.339565933E-1
1.873570250E0,-1.977553517E-1,-3.039366007E0,2.113203108E-1
1.883616250E0,-1.707180142E-1,-2.112495184E0,-1.734349132E-1
1.893662250E0,7.269960046E-1,-1.795677096E-1,-6.031151414E-1
1.903708250E0,1.009107232E0,2.002822310E-1,-7.939338088E-1
1.913754250E0,7.577144504E-1,-3.377553821E-1,-8.973808885E-1
1.923800250E0,5.302371979E-1,-7.948483229E-1,-9.675112963E-1
1.933846250E0,2.817696035E-1,-9.708979130E-1,-9.783290625E-1
1.943892250E0,2.688316256E-2,-9.916645885E-1,-8.804791570E-1
1.953937250E0,-1.891950667E-1,-9.472574592E-1,-6.435739398E-1
1.963983250E0,-2.503494024E-1,-8.139900565E-1,-3.077365458E-1
1.974029250E0,-1.983501166E-1,-7.123547196E-1,1.727375761E-2
1.984075250E0,-2.188914716E-1,-7.107706666E-1,2.712370157E-1
1.994121250E0,-3.045760095E-1,-6.998895407E-1,5.129148364E-1
2.004167250E0,-4.036531746E-1,-6.467624307E-1,7.386101484E-1
2.014213250E0,-5.208692551E-1,-6.266872287E-1,9.189639688E-1
2.024259250E0,-6.026093364E-1,-7.812402844E-1,8.723735809E-1
2.034305250E0,-6.442798376E-1,-8.917106390E-1,7.546051145E-1
2.044351250E0,-6.108163595E-1,-7.232087255E-1,6.888585091E-1
2.054397250E0,-2.356312722E-1,-6.004468203E-1,5.306283832E-1
2.064443250E0,3.620667160E-1,-8.714860082E-1,2.126964629E-1
2.074489250E0,6.190380454E-1,-9.623139501E-1,-9.782971442E-2
2.084535250E0,5.775021911E-1,-1.086862922E0,-7.091619074E-2
2.094581250E0,1.118008047E-1,-6.941431016E-2,-7.212337255E-1
2.104627250E0,5.073481798E-1,-6.069216728E-1,-9.356858134E-1
2.114673250E0,6.274612546E-1,-1.389694214E0,-9.539026022E-1
2.124719250E0,5.451492667E-1,-1.551468253E0,-8.561548591E-1
2.134765250E0,1.552475691E-1,-1.284081817E0,-4.317615330E-1
2.144811250E0,-2.523756623E-1,-9.474460483E-1,3.530196846E-2
2.154857250E0,-5.015519261E-1,-7.335523963E-1,1.227812171E-1
2.164902250E0,-4.740480781E-1,-5.703043938E-1,-3.311961144E-2
2.174948250E0,-3.092876375E-1,-3.616448939E-1,-2.298393250E-1
2.184994250E0,2.251417786E-1,3.670534790E-1,-4.360292554E-1
2.195040250E0,3.045002520E-1,1.475701034E-1,-7.133551836E-1
2.205086250E0,2.993690968E-1,2.552865446E-1,-7.253105044E-1
2.215132250E0,3.924348354E-1,3.528474569E-1,-6.273906231E-1
2.225178250E0,7.716786265E-1,2.734470367E-1,-5.932044983E-1
2.235224250E0,9.234194160E-1,6.548162103E-1,-1.761393547E-1
2.245270250E0,4.559447467E-1,5.444330573E-1,3.857353628E-1
2.255316250E0,-2.911342382E-1,-4.666046202E-1,6.014156938E-1
2.265362250E0,-6.783187985E-1,-1.520161510E0,6.995428801E-1
2.275408250E0,-5.961413980E-1,-1.981141925E0,7.755758762E-1
2.285454250E0,-7.124169916E-2,-1.873206019E0,8.442785740E-1
2.295500250E0,5.599708557E-1,-1.045917988E0,8.512600660E-1
2.305546250E0,9.759752750E-1,-2.708957493E-1,6.820595860E-1
2.315592250E0,1.210715890E0,-8.451374173E-1,1.492889076E-1
2.325638250E0,1.059320927E0,-1.798137903E0,-3.913921416E-1
2.335684250E0,4.094072878E-1,-1.525833488E0,-8.352079391E-1
2.345730250E0,1.313913763E-1,-1.393071294E0,-1.037064552E0
2.355776250E0,1.485285461E-1,-1.304221869E0,-1.088506937E0
2.365822250E0,3.017981052E-1,-9.814607501E-1,-1.135707259E0
2.375867250E0,4.489201605E-1,-7.419357300E-1,-1.150276065E0
2.385912042E0,4.988088906E-1,-5.766957998E-1,-1.123618245E0
2.395958042E0,1.439187229E-1,-7.972838283E-1,-1.241501212E0
2.406004042E0,-3.650840819E-1,-1.148208141E0,-1.293380141E0
2.416050042E0,8.872628957E-2,-2.195251465E0,-9.451622963E-1
2.426096042E0,4.534232020E-1,-2.579187155E0,-5.871819258E-1
2.436142042E0,5.197572112E-1,-1.149300337E0,-5.799754262E-1
2.446188042E0,4.742433727E-1,-7.142282724E-1,-6.351997256E-1
2.456234042E0,4.673468471E-1,-5.961256027E-1,-6.835225224E-1
2.466280042E0,5.074891448E-1,-2.718394101E-1,-7.836486101E-1
2.476326042E0,5.794286132E-1,6.104030460E-2,-9.403260946E-1
2.486372042E0,6.559844017E-1,2.495386451E-1,-1.076530218E0
2.496418042E0,8.085824847E-1,3.075883687E-1,-1.141195655E0
2.506464042E0,9.366316795E-1,2.611354589E-1,-1.097850204E0
2.516510042E0,1.116639137E0,1.598780602E-1,-1.007789850E0
2.526556042E0,1.004800558E0,1.622394919E-1,-9.759367108E-1
2.536602042E0,9.871923327E-1,-9.865654260E-2,-9.599777460E-1
2.546648042E0,7.601313591E-1,-8.540526032E-2,-9.826866984E-1
2.556694042E0,6.944596767E-1,-1.707350761E-1,-9.923108220E-1
2.566740042E0,6.520509124E-1,-2.567615807E-1,-9.828766584E-1
2.576786042E0,5.096639395E-1,-3.889438510E-1,-9.403491616E-1
2.586832042E0,3.688590527E-1,-5.130631924E-1,-8.712458611E-1
2.596877042E0,2.723743320E-1,-4.861812592E-1,-7.564500570E-1
2.606923042E0,2.193012834E-1,-5.004055500E-1,-5.959257483E-1
2.616969042E0,2.800301313E-1,-5.701982379E-1,-4.389720261E-1
2.627015042E0,2.541441619E-1,-6.221480966E-1,-3.304420412E-1
2.637061042E0,9.288631380E-2,-5.808765888E-1,-2.655940652E-1
2.647107042E0,-4.830936342E-2,-3.741219342E-1,-2.116760164E-1
2.657153042E0,5.307158083E-2,-8.358862996E-2,-4.609169960E-1
2.667199042E0,6.474606693E-2,3.861005604E-1,-3.155770779E0
2.677245042E0,4.335842729E-1,5.997550488E-1,-3.786369562E0
2.687291042E0,-1.249709353E-1,3.844955862E-1,-3.123544216E0
2.697337042E0,-1.076273441E0,-2.216460109E-1,-2.393518686E0
2.707383042E0,-1.685489893E0,-3.670174778E-1,-2.127142668E0
2.717429042E0,-1.948379874E0,1.098446772E-1,-2.107993841E0
2.727475042E0,-2.126325846E0,7.337555289E-1,-2.118000269E0
2.737521042E0,-1.797836661E0,1.153200746E0,-2.170671463E0
2.747567042E0,-1.442161560E0,9.342442155E-1,-2.223013639E0
2.757613042E0,-1.437283993E0,-9.196230769E-2,-1.966608047E0
2.767659042E0,-1.861069679E0,-1.158321738E0,-1.246700168E0
2.777705042E0,-2.323170424E0,-1.866428256E0,-6.673861742E-1
2.787751042E0,-2.725914478E0,-1.814597726E0,-3.181202412E-1
2.797797042E0,-2.641165972E0,-1.004583597E0,-8.352131397E-2
2.807843042E0,-2.636499166E0,-1.820529699E-1,6.771916151E-2
2.817888042E0,-2.546909094E0,4.516978562E-1,1.190947294E-1
2.827934042E0,-3.079996347E0,4.086797535E-1,3.437237814E-2
2.837980042E0,-3.147508383E0,-8.053708822E-2,-5.722112656E-1
2.848026042E0,-2.305954933E0,-3.133527637E-1,3.900630772E-1
2.858072042E0,-1.783594966E0,-8.653792143E-1,1.685495973E0
2.868118042E0,-1.793744564E0,-1.260075927E0,1.767556429E0
2.878164042E0,-1.958993196E0,-1.472325087E0,1.445750713E0
2.888210042E0,-1.952426791E0,-1.635800242E0,1.192950249E0
2.898256042E0,-1.803360343E0,-1.588940501E0,1.051665068E0
2.908302042E0,-1.694229603E0,-1.286272883E0,1.143865108E0
2.918348042E0,-1.577151775E0,-2.401816398E-1,1.320646286E0
2.928394042E0,-1.661466122E0,9.656959176E-1,1.548158646E0
2.938440042E0,-1.961582303E0,1.569947004E0,1.678313136E0
2.948486042E0,-2.132333517E0,1.673108101E0,1.602594852E0
2.958532042E0,-1.970962048E0,1.963849902E0,1.449377298E0
2.968578042E0,-1.775691271E0,2.085853577E0,1.328029275E0
2.978624042E0,-1.759074807E0,2.096689939E0,1.217154980E0
2.988670042E0,-1.776861310E0,1.991186738E0,1.114617348E0
2.998716042E0,-1.719993234E0,1.965567231E0,1.019237280E0
3.008762042E0,-1.671731710E0,2.202656507E0,9.164759517E-1
3.018808042E0,-1.607628345E0,2.405930519E0,7.823445201E-1
3.028854042E0,-1.467865348E0,2.433904409E0,6.602553129E-1
3.038900042E0,-1.257676959E0,2.398629427E0,5.774602890E-1
3.048945042E0,-1.000730872E0,2.306182861E0,4.744873643E-1
3.058991042E0,-6.918480396E-1,2.087195158E0,3.899032176E-1
3.069037042E0,-3.970919847E-1,1.856556535E0,3.075971901E-1
3.079083042E0,-1.150600240E-1,1.646905780E0,2.011852711E-1
3.089129042E0,1.732596606E-1,1.405755281E0,7.949878275E-2
3.099175042E0,4.763412476E-1,1.180994272E0,-3.330792859E-2
3.109221042E0,7.696988583E-1,9.744533896E-1,-1.419981271E-1
3.119267042E0,1.052048206E0,7.966583371E-1,-2.398037761E-1
3.129313042E0,1.323752999E0,6.219170690E-1,-3.304618895E-1
3.139359042E0,1.618474603E0,4.475988150E-1,-4.141277671E-1
3.149405042E0,1.892506361E0,2.436028719E-1,-4.509641230E-1
3.159451042E0,2.047336102E0,1.311362535E-1,-4.267895520E-1
3.169497042E0,2.023074389E0,1.202004403E-1,-3.650293648E-1
3.179543042E0,1.773076534E0,2.941517234E-1,-3.545532823E-1
3.189589042E0,1.281306624E0,6.147734523E-1,-3.847308159E-1
3.199635042E0,3.815890551E-1,7.809597850E-1,-2.806645930E-1
3.209681042E0,-7.555434108E-1,6.407041550E-1,6.693329662E-2
3.219727042E0,-1.637675881E0,7.375720739E-1,5.978637934E-1
3.229773042E0,-2.006500721E0,1.318063736E0,1.061659813E0
3.239819042E0,-2.017880440E0,1.917364478E0,1.301677227E0
3.249865042E0,-1.785422325E0,2.144738913E0,1.307271004E0
3.259911042E0,-1.390558958E0,1.744212627E0,1.064717293E0
3.269957042E0,-8.770926595E-1,1.051888704E0,7.025018334E-1
3.280002042E0,-3.507151008E-1,9.107912183E-1,4.400417507E-1
3.290048042E0,1.879944205E-1,1.207590461E0,2.620552182E-1
3.300094042E0,7.053971291E-1,1.116575003E0,1.173454225E-1
3.310140042E0,1.176315546E0,5.089345574E-1,9.080483764E-2
3.320186042E0,1.449204564E0,-7.836779207E-2,7.774682343E-2
3.330232042E0,1.244901776E0,-3.516009152E-1,7.329834253E-2
3.340278042E0,3.577784002E-1,-9.277164340E-1,3.803789318E-1
