"Time (s)","X (rad/s)","Y (rad/s)","Z (rad/s)"
1.240300003E-2,-8.113536835E-1,-3.501136005E-1,-5.543596745E-1
2.233800001E-2,-9.968228936E-1,-3.336991966E-1,-7.140444517E-1
3.227299999E-2,-1.279654384E0,-5.389297754E-2,-7.802354097E-1
4.220800009E-2,-1.563074827E0,3.679267168E-1,-7.846067548E-1
5.214300007E-2,-1.820147872E0,7.140113711E-1,-7.739325762E-1
6.207800005E-2,-2.108751535E0,8.254905343E-1,-7.751243711E-1
7.201300003E-2,-2.503033400E0,6.538780928E-1,-7.938954830E-1
8.194800001E-2,-2.970241547E0,2.859325409E-1,-8.487901688E-1
9.188299999E-2,-3.377110958E0,-9.672110528E-2,-9.359928370E-1
1.018180001E-1,-3.605064869E0,-3.565470874E-1,-9.579833746E-1
1.117530001E-1,-3.622903347E0,-4.712848365E-1,-8.612218499E-1
1.216880000E-1,-3.468898535E0,-4.863831103E-1,-6.299622655E-1
1.316230000E-1,-3.182728052E0,-4.231976569E-1,-2.798279822E-1
1.415580000E-1,-2.756329298E0,-2.055412233E-1,2.008374482E-1
1.514930001E-1,-2.278239727E0,1.627360880E-1,7.645401955E-1
1.614270001E-1,-1.841638088E0,6.011906862E-1,1.293280840E0
1.713620001E-1,-1.581917405E0,9.101788402E-1,1.687176228E0
1.812970000E-1,-1.520817637E0,9.679470658E-1,1.872908592E0
1.912320000E-1,-1.608698487E0,7.363479137E-1,1.824959517E0
2.011670000E-1,-1.791841626E0,2.188855857E-1,1.508824468E0
2.111020001E-1,-2.010590553E0,-3.561102152E-1,8.981856704E-1
2.210370001E-1,-2.135562897E0,-6.074302793E-1,9.241858870E-2
2.309720000E-1,-2.061080694E0,-3.262498677E-1,-5.958783031E-1
2.409070000E-1,-1.782587886E0,2.614248395E-1,-8.990083337E-1
2.508420000E-1,-1.336017251E0,8.309535384E-1,-8.930802345E-1
2.607770000E-1,-7.810901403E-1,1.231735945E0,-8.898168206E-1
2.707120001E-1,-2.872650027E-1,1.560916543E0,-9.781417251E-1
2.806470001E-1,2.517893910E-2,1.657533050E0,-1.089213848E0
2.905820000E-1,1.158502847E-1,1.423361063E0,-1.233063340E0
3.005170000E-1,3.128959611E-2,9.000810981E-1,-1.395069003E0
3.104520000E-1,-1.592658907E-1,2.840763927E-1,-1.548025370E0
3.203870000E-1,-4.032703042E-1,-3.493857682E-1,-1.658184290E0
3.303220001E-1,-6.341270804E-1,-8.592740893E-1,-1.707534194E0
3.402570001E-1,-7.931904793E-1,-1.156561732E0,-1.685172200E0
3.501920000E-1,-8.580634594E-1,-1.315568686E0,-1.604812622E0
3.601270000E-1,-8.527906537E-1,-1.388939619E0,-1.484117627E0
3.700620000E-1,-7.711349726E-1,-1.391923070E0,-1.325176835E0
3.799970001E-1,-5.797956586E-1,-1.378920197E0,-1.136513948E0
3.899320001E-1,-2.618833184E-1,-1.367546082E0,-9.384905696E-1
3.998670001E-1,1.364440769E-1,-1.330261827E0,-7.555494905E-1
4.098020000E-1,5.284267068E-1,-1.211004615E0,-5.895652771E-1
4.197370000E-1,8.804633021E-1,-1.024800658E0,-4.351924956E-1
4.296720000E-1,1.144202232E0,-8.813865185E-1,-3.142213225E-1
4.396070001E-1,1.334424376E0,-8.537935615E-1,-1.924024820E-1
4.495420001E-1,1.475406766E0,-9.239192009E-1,-7.739806920E-2
4.594770001E-1,1.586827636E0,-1.005235434E0,3.618468344E-2
4.694120000E-1,1.677562118E0,-1.072670579E0,1.387052387E-1
4.793460000E-1,1.738755703E0,-1.178055048E0,2.264247090E-1
4.892810000E-1,1.795542598E0,-1.315067053E0,3.381277919E-1
4.992160001E-1,1.913812280E0,-1.387727618E0,5.236603618E-1
5.091510001E-1,1.982304573E0,-1.559098721E0,7.348557115E-1
5.190860000E-1,1.834932685E0,-1.729501963E0,8.764397502E-1
5.290210000E-1,1.096327066E0,-1.688806653E0,8.215093613E-1
5.389560000E-1,-1.269925117E0,-1.018466353E0,4.427972138E-1
5.488910001E-1,-3.755486250E0,-6.859504580E-1,5.096499622E-2
5.588260001E-1,-3.743520021E0,-5.993569493E-1,-9.240414947E-2
5.687610001E-1,-2.135232210E0,-2.677683830E-1,-1.554166228E-1
5.786960000E-1,-4.874469638E-1,5.551438332E-1,-3.610438108E-1
5.886310000E-1,7.274234891E-1,1.571714163E0,-6.245577335E-1
5.985663334E-1,1.603983283E0,2.229073763E0,-7.040757537E-1
6.085013334E-1,2.056101799E0,2.134451866E0,-4.790736437E-1
6.184363334E-1,2.020217180E0,1.445429206E0,4.488227516E-2
6.283713334E-1,1.723260760E0,6.173768640E-1,6.555473208E-1
6.383063333E-1,1.413453817E0,2.455642261E-2,1.038382053E0
6.482413334E-1,1.115443826E0,-2.735411525E-1,1.194640160E0
6.581763334E-1,6.238477230E-1,-6.432579160E-1,1.279360175E0
6.681113334E-1,-6.608408093E-1,-1.198239923E0,9.936083555E-1
6.780463334E-1,-5.054887533E-1,-3.916246891E-1,7.081691623E-1
6.879813334E-1,6.488671154E-2,5.261620283E-1,5.597376823E-1
6.979163333E-1,5.236433744E-1,8.220125437E-1,4.851078987E-1
7.078513334E-1,8.424294591E-1,7.130192518E-1,4.805748165E-1
7.177863334E-1,1.044571161E0,3.841440976E-1,4.983855188E-1
7.277203334E-1,1.124192476E0,-8.529546857E-2,5.335796475E-1
7.376553334E-1,1.115254998E0,-5.783193111E-1,5.550096035E-1
7.475903333E-1,1.073722363E0,-1.031200767E0,5.291467309E-1
7.575253333E-1,1.045223594E0,-1.417732716E0,4.610630274E-1
7.674603334E-1,9.966081381E-1,-1.705669880E0,3.516151011E-1
7.773953334E-1,8.434657454E-1,-1.867560148E0,2.017531842E-1
7.873303334E-1,6.466950178E-1,-1.949285626E0,-6.345533300E-3
7.972653334E-1,4.882302582E-1,-1.933551908E0,-2.013358027E-1
8.072003333E-1,4.423425794E-1,-1.785515189E0,-3.980882764E-1
8.171353334E-1,8.889527917E-1,-1.007373929E0,-5.151802897E-1
8.270703334E-1,1.683932781E0,1.196616739E-1,-4.226672053E-1
8.370053334E-1,2.113590956E0,7.335818410E-1,-3.168246746E-1
8.469403334E-1,2.198650837E0,8.759961724E-1,-2.972466648E-1
8.568753334E-1,2.121404171E0,7.516023517E-1,-2.862917483E-1
8.668103333E-1,1.973436594E0,6.168435216E-1,-3.488391638E-1
8.767453334E-1,1.891837597E0,7.347784042E-1,-4.529828727E-1
8.866803334E-1,1.879500628E0,1.028333664E0,-6.293960810E-1
8.966153334E-1,1.845538974E0,1.416292071E0,-7.347542048E-1
9.065503334E-1,1.708620548E0,1.741258979E0,-7.466232181E-1
9.164853333E-1,1.561605573E0,1.879488230E0,-6.896688342E-1
9.264203333E-1,1.391330123E0,1.729726434E0,-5.280653238E-1
9.363553334E-1,1.132998943E0,1.237509251E0,-1.813694388E-1
9.462903334E-1,8.551059961E-1,5.701121092E-1,2.077060789E-1
9.562243334E-1,6.790433526E-1,1.318188151E-3,4.888538718E-1
9.661593334E-1,6.376100183E-1,-3.394799531E-1,6.330945492E-1
9.760943333E-1,6.701948643E-1,-4.257554710E-1,6.524762511E-1
9.860293333E-1,6.750568151E-1,-3.465049267E-1,6.189292073E-1
9.959643334E-1,6.427944899E-1,-1.553461552E-1,6.692602634E-1
1.005899333E0,5.863416195E-1,1.194758266E-1,7.587001324E-1
1.015834333E0,5.235879421E-1,4.210266173E-1,8.133566976E-1
1.025769333E0,4.583468735E-1,6.948289275E-1,8.149077296E-1
1.035704333E0,3.935833275E-1,9.080227017E-1,7.889394760E-1
1.045639333E0,3.197944164E-1,1.036895394E0,7.540999055E-1
1.055574333E0,2.341958731E-1,1.052802920E0,7.249209881E-1
1.065509333E0,1.467762142E-1,9.791885614E-1,6.933055520E-1
1.075444333E0,1.125980020E-1,8.718982935E-1,6.459901929E-1
1.085379333E0,1.253071278E-1,7.968612909E-1,5.897449255E-1
1.095314333E0,1.481754184E-1,7.723053098E-1,5.374302864E-1
1.105249333E0,1.370750964E-1,7.991809845E-1,5.003414154E-1
1.115184333E0,6.790801138E-2,8.547169566E-1,4.379624426E-1
1.125119333E0,-2.948827110E-2,8.655093908E-1,3.139113784E-1
1.135054333E0,-1.361984760E-1,7.381623387E-1,1.225496754E-1
1.144989333E0,-2.465493530E-1,4.776009917E-1,-1.049593985E-1
1.154924333E0,-4.054047763E-1,1.266632080E-1,-2.947705984E-1
1.164858333E0,-6.616104245E-1,-2.668300569E-1,-3.888660371E-1
1.174793333E0,-1.045664072E0,-6.167659760E-1,-3.692547977E-1
1.184728333E0,-1.475112319E0,-7.660560608E-1,-2.766593695E-1
1.194663333E0,-1.841057062E0,-6.561369896E-1,-2.327110618E-1
1.204598333E0,-2.134475708E0,-3.806445897E-1,-3.896467090E-1
1.214533333E0,-2.405856371E0,-7.438107580E-2,-6.431138515E-1
1.224468333E0,-2.702738523E0,1.463994831E-1,-8.423737884E-1
1.234403333E0,-3.048439264E0,1.857889593E-1,-9.518387914E-1
1.244338333E0,-3.347829819E0,7.271221280E-2,-9.576449990E-1
1.254273333E0,-3.482990026E0,-8.936990052E-2,-8.692046404E-1
1.264208333E0,-3.412793636E0,-2.340813279E-1,-7.011013031E-1
1.274143333E0,-3.150265217E0,-3.349935412E-1,-4.564140439E-1
1.284078333E0,-2.741237402E0,-3.314018548E-1,-1.028853953E-1
1.294013333E0,-2.272699833E0,-1.766817868E-1,3.137885034E-1
1.303948333E0,-1.847261429E0,7.495950907E-2,6.701069474E-1
1.313883333E0,-1.545668602E0,3.545549512E-1,9.192898870E-1
1.323818333E0,-1.413070798E0,5.928710699E-1,9.997964501E-1
1.333753333E0,-1.439387918E0,6.746231914E-1,8.645898700E-1
1.343688333E0,-1.582981825E0,5.634257793E-1,5.120784640E-1
1.353623333E0,-1.762542248E0,3.758788109E-1,-2.046692744E-2
1.363557333E0,-1.855398417E0,3.213897049E-1,-5.353041291E-1
1.373492333E0,-1.803188562E0,4.754181504E-1,-7.790629864E-1
1.383427333E0,-1.595669508E0,7.598124743E-1,-7.859893441E-1
1.393362333E0,-1.291332006E0,1.025105357E0,-6.733799577E-1
1.403297333E0,-9.698819518E-1,1.110725164E0,-5.369295478E-1
1.413232333E0,-6.140918732E-1,8.362113237E-1,-5.280574560E-1
1.423167333E0,-3.348723650E-1,5.291836262E-1,-7.209859490E-1
1.433102333E0,-2.101956904E-1,1.863628626E-1,-1.016732812E0
1.443037333E0,-2.939214408E-1,-6.920453161E-2,-1.335491896E0
1.452972333E0,-5.544353724E-1,-1.858983934E-1,-1.611539721E0
1.462907333E0,-8.477578163E-1,-3.889435530E-1,-1.787336588E0
1.472842333E0,-1.092532158E0,-7.667374611E-1,-1.836520433E0
1.482777333E0,-1.238243818E0,-1.218839169E0,-1.755357146E0
1.492712333E0,-1.252435207E0,-1.564268470E0,-1.598021269E0
1.502647333E0,-1.137371182E0,-1.677519917E0,-1.420040846E0
1.512582333E0,-9.055771232E-1,-1.544271946E0,-1.235149622E0
1.522517333E0,-5.499850512E-1,-1.306934237E0,-1.055625200E0
1.532452333E0,-8.192250878E-2,-1.106560946E0,-8.913588524E-1
1.542386333E0,4.386341870E-1,-9.651119709E-1,-7.632175684E-1
1.552321333E0,9.057691693E-1,-8.284478188E-1,-6.651639938E-1
1.562256333E0,1.250012517E0,-7.017188072E-1,-5.835559964E-1
1.572191333E0,1.451949358E0,-6.414735913E-1,-4.943076074E-1
1.582126333E0,1.570614338E0,-6.902007461E-1,-3.902227879E-1
1.592061333E0,1.637090802E0,-8.033941388E-1,-2.619130313E-1
1.601996958E0,1.690373659E0,-8.942208886E-1,-1.204128489E-1
1.611931958E0,1.755925179E0,-9.237902164E-1,1.119871065E-2
1.621866958E0,1.839968562E0,-9.748854637E-1,1.458872408E-1
1.631801958E0,1.912097931E0,-1.131787181E0,3.063091338E-1
1.641736958E0,2.002058268E0,-1.265861750E0,5.050007105E-1
1.651671958E0,2.116510868E0,-1.335590839E0,7.166354656E-1
1.661606958E0,2.095888376E0,-1.397633791E0,8.675392866E-1
1.671541958E0,1.670929074E0,-1.363495469E0,8.464521170E-1
1.681476958E0,-2.126906961E-1,-8.843647242E-1,5.142593980E-1
1.691411958E0,-3.421907425E0,-8.370827436E-1,3.722067177E-2
1.701346958E0,-4.079440594E0,-8.719284534E-1,-5.472810194E-2
1.711281958E0,-2.736460924E0,-5.997645855E-1,-1.226133481E-2
1.721215958E0,-9.709640741E-1,9.148938209E-2,-1.683864892E-1
1.731150958E0,5.139791369E-1,1.228124380E0,-4.891645014E-1
1.741085958E0,1.492777705E0,2.277417183E0,-6.501120925E-1
1.751020958E0,1.891774893E0,2.516164303E0,-5.525786281E-1
1.760955958E0,1.773935676E0,2.125443935E0,-1.727319658E-1
1.770890958E0,1.454668760E0,1.629552245E0,4.397276938E-1
1.780825958E0,1.172838807E0,1.201612830E0,8.984076381E-1
1.790760958E0,8.915310502E-1,7.764682174E-1,1.004566669E0
1.800695958E0,3.946897984E-1,-5.532737970E-1,8.554221988E-1
1.810630958E0,-1.739086658E-1,-2.241128922E0,4.688574374E-1
1.820565958E0,9.414435923E-2,-1.477146029E0,4.612063169E-1
1.830500958E0,5.302920938E-1,9.198890626E-2,6.909545660E-1
1.840435958E0,7.984834909E-1,1.081265092E0,8.563116789E-1
1.850370958E0,9.013805389E-1,1.453915954E0,9.811462760E-1
1.860305958E0,8.926867247E-1,1.448377013E0,1.065732002E0
1.870240958E0,8.030633926E-1,1.221734047E0,1.085340381E0
1.880174958E0,7.047578692E-1,8.611590266E-1,1.006577969E0
1.890109958E0,6.958897710E-1,4.338154495E-1,8.532437086E-1
1.900044958E0,7.635987997E-1,-2.561212331E-2,6.692257524E-1
1.909979958E0,8.588024974E-1,-4.814424813E-1,5.099796057E-1
1.919914958E0,9.465700388E-1,-9.118100405E-1,3.582245409E-1
1.929849958E0,1.011238813E0,-1.298168898E0,1.734219491E-1
1.939784958E0,1.092979193E0,-1.580993652E0,-3.536561877E-2
1.949719958E0,1.340581179E0,-1.300766468E0,-1.749416292E-1
1.959654958E0,1.609996080E0,-5.228932500E-1,-1.805817485E-1
1.969589958E0,1.647030830E0,1.713136025E-2,-1.767052561E-1
1.979524958E0,1.521126390E0,1.158712134E-1,-2.108156830E-1
1.989459958E0,1.341442943E0,-1.389024500E-2,-2.747856081E-1
1.999394958E0,1.200889111E0,-1.499047875E-1,-3.931393325E-1
2.009329958E0,1.111229300E0,-2.209339589E-1,-5.375900269E-1
2.019264958E0,1.083523870E0,-1.415149271E-1,-6.755389571E-1
2.029199958E0,1.142358661E0,1.404485852E-1,-7.770242691E-1
2.039134958E0,1.259713769E0,5.914582014E-1,-8.291049004E-1
2.049068958E0,1.413195729E0,1.124264598E0,-8.348346949E-1
2.059003958E0,1.564126611E0,1.630163789E0,-7.999293208E-1
2.068938958E0,1.679547668E0,1.975793123E0,-7.348248959E-1
2.078873958E0,1.727703214E0,2.097564220E0,-6.162377000E-1
2.088808958E0,1.685657024E0,1.941694140E0,-3.987581134E-1
2.098743958E0,1.529080272E0,1.522479177E0,-1.017301753E-1
2.108678958E0,1.290293813E0,1.005398035E0,1.964349449E-1
2.118613958E0,1.028891802E0,5.529984236E-1,4.295873046E-1
2.128548958E0,7.991992235E-1,2.267841101E-1,5.654753447E-1
2.138483958E0,6.230044961E-1,6.564854831E-2,6.583943367E-1
2.148418958E0,5.137965083E-1,6.222691014E-2,7.572242618E-1
2.158353958E0,4.535775185E-1,1.503982097E-1,8.587888479E-1
2.168288958E0,4.221828282E-1,2.639316916E-1,9.538599849E-1
2.178223958E0,4.096782804E-1,3.354635537E-1,1.014466763E0
2.188158958E0,3.920651972E-1,3.512755334E-1,1.025926352E0
2.198093958E0,3.720291257E-1,3.254166543E-1,1.002261400E0
2.208027958E0,3.511882722E-1,3.311400414E-1,9.571932554E-1
2.217962958E0,3.273496628E-1,4.148286581E-1,9.098951817E-1
2.227897958E0,3.053213358E-1,5.781345367E-1,8.538218141E-1
2.237832958E0,2.853733897E-1,7.501940727E-1,7.786425352E-1
2.247767958E0,2.391036302E-1,8.650780320E-1,6.949804425E-1
2.257702958E0,1.472055316E-1,8.569768071E-1,6.112240553E-1
2.267637958E0,3.335454501E-3,7.817651033E-1,5.307960510E-1
2.277572958E0,-1.611741334E-1,7.150771022E-1,4.273443222E-1
2.287507958E0,-2.965098619E-1,6.291099787E-1,2.913950086E-1
2.297442958E0,-4.096423388E-1,4.337278903E-1,1.041429266E-1
2.307377958E0,-5.105958581E-1,1.283823699E-1,-9.905892611E-2
2.317312958E0,-6.417560577E-1,-2.464893311E-1,-2.357151359E-1
2.327247958E0,-8.691093326E-1,-6.120572090E-1,-2.803497016E-1
2.337182958E0,-1.231922984E0,-8.013558984E-1,-2.463245690E-1
2.347117958E0,-1.634991884E0,-7.334202528E-1,-2.071294934E-1
2.357051958E0,-1.989700317E0,-5.127643347E-1,-2.970338166E-1
2.366986958E0,-2.331051111E0,-2.799585164E-1,-5.211268067E-1
2.376921958E0,-2.714042902E0,-9.909079224E-2,-7.420716286E-1
2.386856958E0,-3.122162104E0,-3.066246957E-2,-8.798649311E-1
2.396791958E0,-3.445461273E0,-7.895897329E-2,-9.487381577E-1
2.406726958E0,-3.540045738E0,-1.942834258E-1,-9.758307338E-1
2.416661958E0,-3.412587404E0,-2.914228737E-1,-9.658275247E-1
2.426596958E0,-3.163154364E0,-3.705760241E-1,-8.692669272E-1
2.436531958E0,-2.839706898E0,-3.997224271E-1,-6.423038840E-1
2.446466958E0,-2.469470501E0,-3.035072088E-1,-2.917951047E-1
2.456401958E0,-2.097608805E0,-8.592189103E-2,1.061926633E-1
2.466336958E0,-1.793013811E0,1.890633404E-1,4.797529280E-1
2.476271958E0,-1.594290376E0,4.281182289E-1,7.859541774E-1
2.486206958E0,-1.521973491E0,5.543850660E-1,9.345678687E-1
2.496141958E0,-1.558649659E0,4.898073375E-1,8.399034142E-1
2.506075958E0,-1.651768208E0,2.853753567E-1,4.738186598E-1
2.516010958E0,-1.755719185E0,1.454072148E-1,-9.546028823E-2
2.525945958E0,-1.801234484E0,2.977871299E-1,-6.521387100E-1
2.535880958E0,-1.701612830E0,7.159616351E-1,-9.509657621E-1
2.545815958E0,-1.434959769E0,1.100196362E0,-1.000187159E0
2.555750958E0,-1.078433871E0,1.163954020E0,-9.329611659E-1
2.565685958E0,-6.347768307E-1,7.351006866E-1,-9.266278744E-1
2.575620958E0,-2.509054244E-1,2.698611021E-1,-1.106767178E0
2.585555958E0,-4.703298584E-2,-2.454674840E-1,-1.431901693E0
2.595490958E0,-1.873026788E-1,-4.903712571E-1,-1.789901376E0
2.605425375E0,-5.597875714E-1,-5.908496380E-1,-2.075212955E0
2.615360375E0,-9.790620804E-1,-8.213928342E-1,-2.160948515E0
2.625295375E0,-1.330683827E0,-1.249052525E0,-2.001681328E0
2.635230375E0,-1.569433451E0,-1.797833800E0,-1.690888643E0
2.645165375E0,-1.657629132E0,-2.211735010E0,-1.370688438E0
2.655099375E0,-1.590435147E0,-2.255917311E0,-1.109490275E0
2.665034375E0,-1.383321643E0,-1.952219129E0,-9.132917523E-1
2.674969375E0,-1.051854849E0,-1.525663495E0,-7.608047128E-1
2.684904375E0,-6.010687351E-1,-1.226417065E0,-6.685048938E-1
2.694839375E0,-4.205404967E-2,-1.078346133E0,-6.358004212E-1
2.704774375E0,5.438195467E-1,-9.452205896E-1,-6.231842041E-1
2.714709375E0,1.068320155E0,-7.530637383E-1,-6.133064628E-1
2.724644375E0,1.473715544E0,-5.643042326E-1,-5.667511821E-1
2.734579375E0,1.752273440E0,-4.607562423E-1,-4.514424503E-1
2.744514375E0,1.965340972E0,-5.006400347E-1,-3.188660443E-1
2.754449375E0,2.155269623E0,-6.146144271E-1,-2.006289661E-1
2.764384375E0,2.362767935E0,-6.775332093E-1,-8.620677888E-2
2.774319375E0,2.554245234E0,-6.864016652E-1,1.305810828E-2
2.784254375E0,2.697927237E0,-7.456132770E-1,1.490835845E-1
2.794188375E0,2.765728235E0,-8.561515212E-1,3.478981256E-1
2.804123375E0,2.746140718E0,-9.061971307E-1,5.489444137E-1
2.814058375E0,2.640089989E0,-8.582378030E-1,6.338844299E-1
2.823993375E0,2.400733471E0,-8.247411251E-1,6.118425131E-1
2.833928375E0,1.596009851E0,-9.805963635E-1,4.940678477E-1
2.843863375E0,-9.609730840E-1,-1.192065001E0,2.362125367E-2
2.853798375E0,-2.683984280E0,-7.198104262E-1,-4.282133877E-1
2.863733375E0,-2.564935446E0,1.240930855E-1,-6.033362150E-1
2.873668375E0,-1.527232051E0,6.198448539E-1,-5.738339424E-1
2.883603375E0,-4.421042204E-1,1.016964197E0,-6.863967180E-1
2.893538375E0,4.043887556E-1,1.686575294E0,-8.169406056E-1
2.903473375E0,9.214667678E-1,2.090600252E0,-7.038829923E-1
2.913408375E0,1.007914424E0,1.746654749E0,-2.724598348E-1
2.923343375E0,8.806360364E-1,1.319122314E0,4.813383222E-1
2.933277375E0,7.719715238E-1,1.060124159E0,1.284099460E0
2.943212375E0,7.057706714E-1,6.221728921E-1,1.768915892E0
2.953147375E0,5.031052828E-1,-5.483976565E-3,1.925037980E0
2.963082375E0,2.528682947E-1,-1.840664864E0,1.562368631E0
2.973017375E0,3.411193490E-1,-2.803430796E0,8.582929969E-1
2.982952375E0,5.342811346E-1,-1.995506763E0,4.164636433E-1
2.992887375E0,6.653598547E-1,-1.057502747E0,2.143268585E-1
3.002822375E0,7.252804637E-1,-3.549497128E-1,2.105622143E-1
3.012757375E0,7.311141491E-1,1.301862448E-1,3.154524565E-1
3.022692375E0,6.948323250E-1,4.231544733E-1,4.212262928E-1
3.032627375E0,6.620345116E-1,5.359050035E-1,4.754776657E-1
3.042562375E0,6.605713964E-1,5.391298532E-1,5.063655376E-1
3.052497375E0,7.250689864E-1,5.460937023E-1,5.278106332E-1
3.062431375E0,8.309938312E-1,5.396366119E-1,5.384888649E-1
3.072366375E0,9.006490707E-1,4.536033869E-1,5.223202705E-1
3.082301375E0,9.037188888E-1,2.074695379E-1,4.774491787E-1
3.092236375E0,9.237844944E-1,-2.294438630E-1,4.007216394E-1
3.102171375E0,9.906386137E-1,-7.716093659E-1,2.958916426E-1
3.112106375E0,1.004838586E0,-1.393632770E0,1.730300635E-1
3.122041375E0,9.942501187E-1,-1.900556684E0,5.282083526E-2
3.131976375E0,1.003085256E0,-1.996420264E0,-5.363619700E-2
3.141911375E0,1.003764033E0,-1.848257422E0,-1.950396597E-1
3.151846375E0,1.015452623E0,-1.533598900E0,-3.597733974E-1
3.161781375E0,1.104882121E0,-9.694536924E-1,-5.102268457E-1
3.171716375E0,1.281291604E0,-1.747861952E-1,-6.218042374E-1
3.181651375E0,1.500351310E0,7.518801689E-1,-6.579321623E-1
3.191586375E0,1.690863967E0,1.601269960E0,-6.286966801E-1
3.201520375E0,1.776130080E0,2.168890476E0,-5.731580853E-1
3.211455375E0,1.754782200E0,2.385352612E0,-5.085729361E-1
3.221390375E0,1.621131182E0,2.227985859E0,-4.062479138E-1
3.231325375E0,1.391980171E0,1.768153191E0,-2.205173224E-1
3.241260375E0,1.120881796E0,1.210621476E0,5.553742498E-2
3.251195375E0,8.768668771E-1,7.687474489E-1,3.026040792E-1
3.261130375E0,6.925129890E-1,4.968578517E-1,4.409220219E-1
3.271065375E0,5.790312290E-1,3.643828034E-1,5.248199105E-1
3.281000375E0,5.158352256E-1,3.053503931E-1,6.357163787E-1
3.290935375E0,4.688593149E-1,2.612171769E-1,7.587202787E-1
3.300870375E0,4.285545051E-1,2.259910256E-1,8.507394195E-1
3.310805375E0,4.019912183E-1,2.266650498E-1,9.140296578E-1
3.320739375E0,4.003709555E-1,2.618360817E-1,9.518800974E-1
