"Time (s)","Acceleration x (m/s^2)","Acceleration y (m/s^2)","Acceleration z (m/s^2)"
0.000000000E0,8.549311161E-1,3.033549190E-1,1.064819336E1
2.000000000E-3,7.872422338E-1,2.950518429E-1,1.055602551E1
4.000000000E-3,7.195629478E-1,3.054713905E-1,1.045537281E1
6.000000000E-3,6.465206146E-1,3.312234581E-1,1.035850430E1
8.000000000E-3,5.532999635E-1,3.613424897E-1,1.027137375E1
1.000000000E-2,4.685740173E-1,3.827657998E-1,1.017846012E1
1.200000000E-2,3.759279847E-1,4.211017787E-1,1.009272861E1
1.400000000E-2,2.907805741E-1,4.480987787E-1,9.998750687E0
1.600000000E-2,2.077113688E-1,4.618606567E-1,9.895474434E0
1.800000000E-2,1.182256788E-1,4.437796772E-1,9.783369064E0
2.000000000E-2,5.534436926E-2,4.048882425E-1,9.693137169E0
2.200000000E-2,-7.661445416E-4,3.485957682E-1,9.621874809E0
2.400000000E-2,4.294240102E-2,1.387966573E-1,9.592129707E0
2.600000000E-2,7.142382860E-2,-4.969405010E-2,9.688463211E0
2.800000000E-2,9.950302541E-3,-1.195760146E-1,9.713802338E0
3.000000000E-2,-1.152089834E-1,-1.496854872E-1,9.662768364E0
3.200000000E-2,-2.772293985E-1,-1.526255608E-1,9.542110443E0
3.400000000E-2,-4.159973562E-1,-1.475881636E-1,9.407057762E0
3.600000000E-2,-4.936077893E-1,-1.379634887E-1,9.272723198E0
3.800000000E-2,-4.963850379E-1,-1.343530267E-1,9.199950218E0
4.000000000E-2,-4.795681834E-1,-1.188577488E-1,9.071936607E0
4.200000000E-2,-4.888097942E-1,-9.761639684E-2,8.973085403E0
4.400000000E-2,-5.406203270E-1,-5.618712679E-2,8.889077187E0
4.600000000E-2,-5.962902904E-1,-1.076433063E-2,8.797063828E0
4.800000000E-2,-6.654348373E-1,2.321418002E-2,8.693039894E0
5.000000000E-2,-7.326449156E-1,8.536764979E-2,8.591009140E0
5.200000000E-2,-7.860068083E-1,1.336156130E-1,8.503294945E0
5.400000000E-2,-8.187499642E-1,1.787702441E-1,8.425339699E0
5.600000000E-2,-8.596237898E-1,2.021376640E-1,8.342681885E0
5.800000000E-2,-9.025470018E-1,2.212912738E-1,8.270952225E0
6.000000000E-2,-9.375023246E-1,2.510176897E-1,8.207955360E0
6.200000000E-2,-9.812970757E-1,2.717418969E-1,8.134138107E0
6.400000000E-2,-1.001073122E0,2.934238017E-1,8.062388420E0
6.600000000E-2,-1.019709706E0,2.952720821E-1,7.970402718E0
6.800000000E-2,-1.030359030E0,2.782253921E-1,7.891441822E0
7.000000000E-2,-1.054061651E0,2.573958337E-1,7.832841396E0
7.200000000E-2,-1.086220622E0,2.396787405E-1,7.784698963E0
7.400000000E-2,-1.140702963E0,2.048000246E-1,7.734994888E0
7.600000000E-2,-1.227401853E0,1.452131122E-1,7.687130451E0
7.800000000E-2,-1.256151438E0,1.242782176E-1,7.671271324E0
8.000000000E-2,-1.314694405E0,7.742848247E-2,7.660353661E0
8.200000000E-2,-1.378514290E0,3.383485973E-2,7.681278706E0
8.400000000E-2,-1.442142606E0,-1.445140131E-2,7.737743855E0
8.600000000E-2,-1.492018580E0,-6.234501302E-2,7.809857368E0
8.800000000E-2,-1.521141768E0,-1.227555051E-1,7.892006874E0
9.000000000E-2,-1.545169950E0,-1.959797740E-1,8.000933647E0
9.200000000E-2,-1.566487908E0,-2.523105443E-1,8.116123199E0
9.400000000E-2,-1.592048287E0,-2.939600945E-1,8.227664948E0
9.600000000E-2,-1.616775632E0,-3.199802637E-1,8.381477356E0
9.800000000E-2,-1.596367598E0,-3.426964283E-1,8.567420959E0
1.000000000E-1,-1.557275057E0,-3.497354090E-1,8.751573563E0
1.020000000E-1,-1.514303803E0,-3.606338203E-1,8.916916847E0
1.040000000E-1,-1.486205459E0,-3.631525338E-1,9.099987030E0
1.060000000E-1,-1.448472857E0,-3.754970133E-1,9.275424957E0
1.080000000E-1,-1.400655866E0,-3.899196684E-1,9.438939095E0
1.100000000E-1,-1.352714300E0,-3.871040940E-1,9.591353416E0
1.120000000E-1,-1.321723819E0,-3.881575763E-1,9.739048004E0
1.140000000E-1,-1.292160273E0,-4.135265052E-1,9.867300034E0
1.160000000E-1,-1.252790093E0,-4.517284036E-1,1.003371620E1
1.180000000E-1,-1.246210694E0,-4.583459795E-1,1.008831310E1
1.200000000E-1,-1.229594946E0,-4.634312391E-1,1.019355297E1
1.220000000E-1,-1.195999503E0,-4.648294747E-1,1.028124809E1
1.240000000E-1,-1.162030697E0,-4.583555460E-1,1.035302639E1
1.260000000E-1,-1.122756124E0,-4.319140017E-1,1.039882183E1
1.280000000E-1,-1.077936649E0,-4.323641062E-1,1.047097397E1
1.300000000E-1,-1.029296041E0,-4.319235682E-1,1.052726650E1
1.320000000E-1,-9.761351943E-1,-4.220115542E-1,1.057213402E1
1.340000000E-1,-9.305112958E-1,-4.174625874E-1,1.059892941E1
1.360000000E-1,-8.993675113E-1,-4.143022597E-1,1.060439873E1
1.380000000E-1,-8.818036318E-1,-3.897664547E-1,1.059720612E1
1.400000000E-1,-8.979501128E-1,-3.812335134E-1,1.056994057E1
1.420000000E-1,-9.263454080E-1,-3.651636243E-1,1.051727867E1
1.440000000E-1,-9.641258717E-1,-3.353031576E-1,1.045699215E1
1.460000000E-1,-9.166919589E-1,-3.176243603E-1,1.037034035E1
1.480000000E-1,-8.046528697E-1,-3.212827146E-1,1.021979427E1
1.500000000E-1,-8.507364392E-1,-3.135733902E-1,1.000985050E1
1.520000000E-1,-1.010372281E0,-3.051170707E-1,9.837659836E0
1.540000000E-1,-1.202061653E0,-3.179595768E-1,9.744047165E0
1.560000000E-1,-1.524876595E0,-3.935109973E-1,9.696162224E0
1.580000000E-1,-1.624006271E0,-4.423335493E-1,9.694659233E0
1.600000000E-1,-1.817237377E0,-5.332174897E-1,9.696564674E0
1.620000000E-1,-1.970926046E0,-6.106459498E-1,9.698824883E0
1.640000000E-1,-2.075399399E0,-6.789668798E-1,9.709628105E0
1.660000000E-1,-2.118839741E0,-7.249547243E-1,9.733511925E0
1.680000000E-1,-2.110105753E0,-7.460907102E-1,9.748126030E0
1.700000000E-1,-2.074393749E0,-7.472303510E-1,9.751056671E0
1.720000000E-1,-2.023694277E0,-7.347230315E-1,9.746708870E0
1.740000000E-1,-1.956081867E0,-7.126197219E-1,9.748499870E0
1.760000000E-1,-1.888249397E0,-6.850481629E-1,9.751592636E0
1.780000000E-1,-1.814115405E0,-6.617956758E-1,9.757826805E0
1.800000000E-1,-1.713932395E0,-6.578978896E-1,9.782267570E0
1.820000000E-1,-1.631255865E0,-6.567390561E-1,9.820736885E0
1.840000000E-1,-1.565664291E0,-6.428144574E-1,9.879845619E0
1.860000000E-1,-1.498617053E0,-6.314563751E-1,9.963825226E0
1.880000000E-1,-1.425479054E0,-6.188819408E-1,1.007394791E1
1.900000000E-1,-1.356430173E0,-5.955815911E-1,1.019795799E1
1.920000000E-1,-1.271972299E0,-5.800576210E-1,1.030602360E1
1.940000000E-1,-1.181950331E0,-5.638344884E-1,1.041314983E1
1.960000000E-1,-1.062412620E0,-5.372014046E-1,1.056101608E1
1.980000000E-1,-1.023463726E0,-5.295878053E-1,1.058468914E1
2.000000000E-1,-9.263740778E-1,-5.010393858E-1,1.063154888E1
2.020000000E-1,-8.265933394E-1,-4.706809223E-1,1.064382648E1
2.040000000E-1,-7.046710253E-1,-4.013639688E-1,1.039523983E1
2.060000000E-1,-5.082315803E-1,-2.367482483E-1,1.053508091E1
2.080000000E-1,-3.547919691E-1,-1.264042705E-1,1.062397385E1
2.100000000E-1,-2.508548796E-1,-6.792829186E-2,1.063670158E1
2.120000000E-1,-2.054608166E-1,-6.314946711E-2,1.056466389E1
2.140000000E-1,-1.744511127E-1,-1.059003323E-1,1.045861053E1
2.160000000E-1,-1.544738859E-1,-1.671823114E-1,1.030573654E1
2.180000000E-1,-1.110239178E-1,-2.448310703E-1,1.009683704E1
2.200000000E-1,-5.555505678E-2,-3.165038824E-1,9.851316452E0
2.220000000E-1,9.452308528E-3,-3.806684911E-1,9.630571365E0
2.240000000E-1,9.264602512E-2,-4.066790938E-1,9.436401367E0
2.260000000E-1,2.008639574E-1,-3.668970466E-1,9.306348801E0
2.280000000E-1,3.401873112E-1,-2.830808461E-1,9.260992050E0
2.300000000E-1,4.823741615E-1,-1.678622812E-1,9.282578468E0
2.320000000E-1,6.257964373E-1,-3.869029880E-2,9.322360039E0
2.340000000E-1,7.524688840E-1,9.515514970E-2,9.362822533E0
2.360000000E-1,8.433144689E-1,2.171062231E-1,9.382264137E0
2.380000000E-1,9.250141978E-1,3.143299520E-1,9.394062042E0
2.400000000E-1,9.994451404E-1,3.928501904E-1,9.381708145E0
2.420000000E-1,1.060382366E0,4.409832060E-1,9.331812859E0
2.440000000E-1,1.112231255E0,4.853525758E-1,9.260139465E0
2.460000000E-1,1.180848956E0,5.217157006E-1,9.165645599E0
2.480000000E-1,1.255442739E0,5.551004410E-1,9.075269699E0
2.500000000E-1,1.315632939E0,5.992878675E-1,8.991769791E0
2.520000000E-1,1.396863461E0,6.450458169E-1,8.900215149E0
2.540000000E-1,1.478333354E0,6.870592833E-1,8.807119370E0
2.560000000E-1,1.550312638E0,7.357381582E-1,8.711380005E0
2.580000000E-1,1.617417336E0,7.836318016E-1,8.614577293E0
2.600000000E-1,1.672292471E0,8.061276674E-1,8.535233498E0
2.620000000E-1,1.712859750E0,8.360648155E-1,8.460601807E0
2.640000000E-1,1.736035585E0,8.685014844E-1,8.389723778E0
2.660000000E-1,1.748801470E0,9.002198577E-1,8.320435524E0
2.680000000E-1,1.765704632E0,9.190382957E-1,8.260905266E0
2.700000000E-1,1.763128400E0,9.377130270E-1,8.200389862E0
2.720000000E-1,1.775271893E0,9.687610269E-1,8.145677567E0
2.740000000E-1,1.783498287E0,9.933063984E-1,8.123229027E0
2.760000000E-1,1.784072876E0,1.016894102E0,8.116870880E0
2.780000000E-1,1.798524261E0,1.067268014E0,8.150791168E0
2.800000000E-1,1.823826313E0,1.157835960E0,8.271842957E0
2.820000000E-1,1.828375220E0,1.214157104E0,8.326114655E0
2.840000000E-1,1.795900226E0,1.251669526E0,8.301291466E0
2.860000000E-1,1.731572866E0,1.245358348E0,8.252899170E0
2.880000000E-1,1.661346197E0,1.203057647E0,8.208663940E0
2.900000000E-1,1.620568156E0,1.145577669E0,8.173392296E0
2.920000000E-1,1.594883084E0,1.075188160E0,8.150082588E0
2.940000000E-1,1.579684734E0,1.004415512E0,8.140783310E0
2.960000000E-1,1.572243571E0,9.576998353E-1,8.160291672E0
2.980000000E-1,1.589022040E0,9.432483912E-1,8.223958015E0
3.000000000E-1,1.625844955E0,9.418885708E-1,8.314680099E0
3.020000000E-1,1.643226862E0,9.754552841E-1,8.431813240E0
3.040000000E-1,1.646760583E0,1.029478073E0,8.569891930E0
3.060000000E-1,1.643734336E0,1.068302393E0,8.695137978E0
3.080000000E-1,1.620118022E0,1.091305852E0,8.807942390E0
3.100000000E-1,1.573488474E0,1.102003217E0,8.881549835E0
3.120000000E-1,1.527117610E0,1.109588027E0,8.914033890E0
3.140000000E-1,1.496749520E0,1.108620763E0,8.884145737E0
3.160000000E-1,1.454764843E0,1.103372693E0,8.862117767E0
3.180000000E-1,1.368305445E0,1.080378771E0,8.851488113E0
3.200000000E-1,1.291671872E0,1.029018283E0,8.855558395E0
3.220000000E-1,1.208382368E0,9.662519097E-1,8.885399818E0
3.240000000E-1,1.127994657E0,9.081015587E-1,8.925296783E0
3.260000000E-1,1.033567309E0,8.378173709E-1,8.959437370E0
3.280000000E-1,9.456426501E-1,7.638077736E-1,9.008796692E0
3.300000000E-1,8.819472790E-1,6.909570098E-1,9.049795151E0
3.320000000E-1,8.009658456E-1,6.116610765E-1,9.093695641E0
3.340000000E-1,7.168527246E-1,5.268393159E-1,9.140573502E0
3.360000000E-1,6.387921572E-1,4.583172202E-1,9.180336952E0
3.380000000E-1,5.605209470E-1,3.908103406E-1,9.225989342E0
3.400000000E-1,4.930427670E-1,3.066589236E-1,9.264526367E0
3.420000000E-1,4.081347585E-1,2.201612145E-1,9.305122375E0
3.440000000E-1,3.266170025E-1,1.456632316E-1,9.327024460E0
3.460000000E-1,2.619160712E-1,9.797073156E-2,9.333670616E0
3.480000000E-1,1.833671331E-1,4.495352879E-2,9.347183228E0
3.500000000E-1,1.036593542E-1,-3.514687996E-3,9.377800941E0
3.520000000E-1,3.108631447E-2,-4.360320419E-2,9.423683167E0
3.540000000E-1,-5.820783228E-2,-8.164227754E-2,9.471031189E0
3.560000000E-1,-1.470806003E-1,-1.180533022E-1,9.504789352E0
3.580000000E-1,-2.567637563E-1,-1.321312040E-1,9.547252655E0
3.600000000E-1,-3.703925908E-1,-1.449258178E-1,9.567364693E0
3.620000000E-1,-4.761109650E-1,-1.381167173E-1,9.559309959E0
3.640250000E-1,-5.780751705E-1,-1.305127293E-1,9.540635109E0
3.660000000E-1,-6.946824193E-1,-1.007192731E-1,9.526510239E0
3.680000000E-1,-8.178305626E-1,-7.727525383E-2,9.508160591E0
3.700000000E-1,-9.385270476E-1,-6.884766370E-2,9.477801323E0
3.720000000E-1,-1.065218687E0,-5.467398837E-2,9.443737030E0
3.740000000E-1,-1.196363449E0,-5.530606210E-2,9.401676178E0
3.760000000E-1,-1.328092456E0,-7.503427565E-2,9.380885124E0
3.780000000E-1,-1.456172585E0,-8.467812091E-2,9.361319542E0
3.800000000E-1,-1.588361382E0,-9.353667498E-2,9.340259552E0
3.820000000E-1,-1.714286685E0,-1.102098897E-1,9.320320129E0
3.840000000E-1,-1.818568587E0,-1.353968978E-1,9.272091866E0
3.860000000E-1,-1.921749115E0,-1.721909791E-1,9.252621651E0
3.880000000E-1,-2.042704105E0,-2.207453847E-1,9.271718979E0
3.900000000E-1,-2.157137394E0,-2.865093350E-1,9.283574104E0
3.920000000E-1,-2.265154362E0,-3.575596511E-1,9.300650597E0
3.940000000E-1,-2.364264727E0,-4.384357929E-1,9.292039871E0
3.960000000E-1,-2.455196381E0,-5.439722538E-1,9.277512550E0
3.980000000E-1,-2.542057991E0,-6.509738564E-1,9.264976501E0
4.000000000E-1,-2.619419336E0,-7.394827008E-1,9.265100479E0
4.020000000E-1,-2.679236174E0,-8.205025196E-1,9.266977310E0
4.040000000E-1,-2.741791964E0,-9.121333361E-1,9.274418831E0
4.060000000E-1,-2.826910734E0,-1.028855443E0,9.328948975E0
4.080000000E-1,-2.958649158E0,-1.162643552E0,9.429658890E0
4.100000000E-1,-3.153977871E0,-1.332995772E0,9.601131439E0
4.120000000E-1,-3.449623346E0,-1.558950901E0,9.825037956E0
4.140000000E-1,-3.858983994E0,-1.825454354E0,1.009999752E1
4.160000000E-1,-4.343704700E0,-2.116876364E0,1.039391899E1
4.180000000E-1,-4.845682144E0,-2.388723850E0,1.066610146E1
4.200000000E-1,-5.263269424E0,-2.614822626E0,1.091187096E1
4.220000000E-1,-5.544473171E0,-2.755563259E0,1.110633755E1
4.240000000E-1,-5.647854805E0,-2.805247784E0,1.122513771E1
4.260000000E-1,-5.642233372E0,-2.788948059E0,1.128918743E1
4.280000000E-1,-5.552938938E0,-2.716298342E0,1.129115105E1
4.300000000E-1,-5.389175892E0,-2.620348454E0,1.123278046E1
4.320000000E-1,-5.182191849E0,-2.525873184E0,1.113183117E1
4.340000000E-1,-4.975629807E0,-2.420346498E0,1.098830414E1
4.360000000E-1,-4.741323948E0,-2.323477030E0,1.083812046E1
4.380000000E-1,-4.486427784E0,-2.230380774E0,1.068424034E1
4.400000000E-1,-4.200511932E0,-2.120918036E0,1.051572609E1
4.420000000E-1,-3.904320478E0,-1.978980064E0,1.035227966E1
4.440000000E-1,-3.618500710E0,-1.830903411E0,1.020674992E1
4.460000000E-1,-3.355186224E0,-1.680547595E0,1.005356979E1
4.480000000E-1,-3.114339352E0,-1.502964973E0,9.926599503E0
4.500000000E-1,-2.889925957E0,-1.320344687E0,9.823657990E0
4.520000000E-1,-2.692662954E0,-1.135483623E0,9.742733955E0
4.540000000E-1,-2.542680502E0,-9.431909919E-1,9.680657387E0
4.560000000E-1,-2.410482168E0,-7.731547952E-1,9.623398781E0
4.580000000E-1,-2.319492817E0,-6.279512048E-1,9.585100174E0
4.600000000E-1,-2.249007702E0,-4.863964617E-1,9.547224045E0
4.620000000E-1,-2.194036961E0,-3.798065782E-1,9.515745163E0
4.640000000E-1,-2.153306723E0,-3.066876531E-1,9.508122444E0
4.660000000E-1,-2.113227844E0,-2.540343702E-1,9.498976707E0
4.680000000E-1,-2.083894014E0,-2.229289114E-1,9.502614975E0
4.700000000E-1,-2.076174974E0,-2.149418443E-1,9.523387909E0
4.720000000E-1,-2.075514317E0,-2.130743712E-1,9.524172783E0
4.740000000E-1,-2.061273575E0,-2.314714193E-1,9.531594276E0
4.760000000E-1,-2.036230326E0,-2.540630996E-1,9.550920486E0
4.780000000E-1,-2.011388063E0,-2.823817134E-1,9.567249298E0
4.800000000E-1,-1.988556862E0,-3.073293269E-1,9.584535599E0
4.820000000E-1,-1.980723023E0,-3.684963584E-1,9.598182678E0
4.840000000E-1,-1.980790138E0,-4.335516393E-1,9.591631889E0
4.860000000E-1,-1.980723023E0,-4.955518842E-1,9.535166740E0
4.880000000E-1,-1.983596087E0,-5.342996120E-1,9.463743210E0
4.900000000E-1,-1.983098149E0,-5.686995387E-1,9.424028397E0
4.920000000E-1,-1.983816385E0,-6.196097732E-1,9.405296326E0
4.940000000E-1,-1.997616529E0,-6.412534118E-1,9.360265732E0
4.960000000E-1,-1.994714737E0,-6.439732313E-1,9.330070496E0
4.980000000E-1,-2.004262924E0,-6.569976807E-1,9.342873573E0
5.000000000E-1,-2.044016123E0,-6.681546569E-1,9.295631409E0
5.020000000E-1,-2.081155062E0,-6.672448516E-1,9.245410919E0
5.040000000E-1,-2.119088888E0,-6.818686724E-1,9.189960480E0
5.060000000E-1,-2.160623312E0,-7.082815170E-1,9.100045204E0
5.080000000E-1,-2.198260307E0,-7.148320079E-1,9.002485275E0
5.100000000E-1,-2.232363224E0,-7.250313163E-1,8.913163185E0
5.120000000E-1,-2.252158403E0,-7.264103889E-1,8.834163666E0
5.140000000E-1,-2.263114214E0,-6.943184733E-1,8.772507668E0
5.160000000E-1,-2.260959387E0,-6.669384241E-1,8.750328064E0
5.180000000E-1,-2.265163898E0,-6.469995379E-1,8.749351501E0
5.200000000E-1,-2.269013643E0,-6.220136285E-1,8.739066124E0
5.220000000E-1,-2.277920246E0,-6.041433215E-1,8.738251686E0
5.240000000E-1,-2.267098427E0,-5.590652227E-1,8.766685486E0
5.260000000E-1,-2.191863060E0,-3.736008108E-1,8.972998619E0
5.280000000E-1,-2.133348703E0,-2.234364748E-1,9.045973778E0
5.300000000E-1,-2.145635843E0,-1.612446904E-1,8.998338699E0
5.320000000E-1,-2.227612972E0,-1.826392859E-1,8.976101875E0
5.340000000E-1,-2.317098856E0,-2.880703509E-1,8.998635292E0
5.360000000E-1,-2.387363672E0,-4.607401788E-1,9.041894913E0
5.380000000E-1,-2.438551903E0,-6.223104596E-1,9.066219330E0
5.400000000E-1,-2.460262537E0,-7.439359426E-1,9.083209038E0
5.420000000E-1,-2.445801497E0,-8.291407824E-1,9.094298363E0
5.440000000E-1,-2.409917355E0,-8.440997601E-1,9.106241226E0
5.460000000E-1,-2.361717224E0,-7.934001684E-1,9.131619453E0
5.480000000E-1,-2.321140051E0,-7.012999654E-1,9.150609970E0
5.500000000E-1,-2.316390038E0,-5.855451226E-1,9.176409721E0
5.520000000E-1,-2.324597359E0,-4.922766089E-1,9.213261604E0
5.540000000E-1,-2.371801615E0,-4.238790572E-1,9.238525391E0
5.560000000E-1,-2.425211430E0,-3.893355131E-1,9.275309563E0
5.580000000E-1,-2.461718321E0,-3.637175560E-1,9.298638344E0
5.600000000E-1,-2.477749825E0,-3.511240482E-1,9.314622879E0
5.620000000E-1,-2.475211859E0,-3.431465626E-1,9.320655823E0
5.640000000E-1,-2.440859795E0,-3.183234930E-1,9.316336632E0
5.660000000E-1,-2.350933552E0,-2.647316456E-1,9.230844498E0
5.680000000E-1,-2.270488501E0,-2.316725254E-1,9.211202621E0
5.700000000E-1,-2.225994587E0,-2.252464890E-1,9.257209778E0
5.720000000E-1,-2.191795826E0,-2.380123734E-1,9.321833611E0
5.740000000E-1,-2.163515568E0,-2.456067801E-1,9.365810394E0
5.760000000E-1,-2.132946253E0,-2.678345740E-1,9.388823509E0
5.780000000E-1,-2.102472782E0,-2.915850282E-1,9.392807961E0
5.800000000E-1,-2.083865166E0,-3.115718365E-1,9.369287491E0
5.820000000E-1,-2.063725233E0,-3.260328174E-1,9.338191032E0
5.840000000E-1,-2.054617643E0,-3.268372416E-1,9.307373047E0
5.860000000E-1,-2.068982840E0,-3.421218693E-1,9.275970459E0
5.880000000E-1,-2.085972071E0,-3.635547459E-1,9.250419617E0
5.900000000E-1,-2.113132000E0,-3.977535069E-1,9.234588623E0
5.920000000E-1,-2.180227041E0,-4.552622437E-1,9.216114998E0
5.940000000E-1,-2.255874157E0,-5.375940800E-1,9.170329094E0
5.960000000E-1,-2.335467100E0,-6.268977523E-1,9.127511024E0
5.980000000E-1,-2.419091702E0,-7.055808306E-1,9.079425812E0
6.000000000E-1,-2.519667387E0,-7.897896767E-1,9.029109001E0
6.020000000E-1,-2.624763489E0,-8.892831206E-1,8.987900734E0
6.040000000E-1,-2.724017382E0,-9.932776690E-1,8.956201553E0
6.060000000E-1,-2.869383812E0,-1.118197560E0,8.913948059E0
6.080000000E-1,-3.061561584E0,-1.264626980E0,8.870641708E0
6.100000000E-1,-3.307637453E0,-1.430353522E0,8.810614586E0
6.120000000E-1,-3.577195883E0,-1.609430313E0,8.752616882E0
6.140000000E-1,-3.848277092E0,-1.798993587E0,8.684488297E0
6.160000000E-1,-4.101909161E0,-1.957518458E0,8.606159210E0
6.180000000E-1,-4.324914455E0,-2.082907677E0,8.536727905E0
6.200000000E-1,-4.485383987E0,-2.155767918E0,8.483231544E0
6.220000000E-1,-4.580079079E0,-2.195971489E0,8.448573112E0
6.240000000E-1,-4.630615711E0,-2.189985752E0,8.420397758E0
6.260000000E-1,-4.623500347E0,-2.157740831E0,8.397863388E0
6.280000000E-1,-4.579399109E0,-2.102252722E0,8.383095741E0
6.300000000E-1,-4.529647350E0,-2.021137238E0,8.399233818E0
6.320000000E-1,-4.465904236E0,-1.924267769E0,8.433537483E0
6.340000000E-1,-4.393197060E0,-1.822514176E0,8.471959114E0
6.360000000E-1,-4.323822975E0,-1.723767877E0,8.523577690E0
6.380000000E-1,-4.231291771E0,-1.626132250E0,8.567746162E0
6.400000000E-1,-4.133579731E0,-1.512924790E0,8.599484444E0
6.420000000E-1,-4.016474247E0,-1.411535144E0,8.645750046E0
6.440000000E-1,-3.903037071E0,-1.326339841E0,8.688864708E0
6.460000000E-1,-3.794828892E0,-1.257664561E0,8.724327087E0
6.480000000E-1,-3.682416201E0,-1.191622972E0,8.777737617E0
6.500000000E-1,-3.581332922E0,-1.122813582E0,8.826760292E0
6.520000000E-1,-3.502372265E0,-1.062584996E0,8.869482994E0
6.540000000E-1,-3.450370312E0,-1.010065794E0,8.912923813E0
6.560000000E-1,-3.380698919E0,-9.712606072E-1,8.948462486E0
6.580000000E-1,-3.294402361E0,-9.402509332E-1,9.002293587E0
6.600000000E-1,-3.219961882E0,-9.419459701E-1,9.071783066E0
6.620000000E-1,-3.137275696E0,-9.454798698E-1,9.144721031E0
6.640000000E-1,-3.051170588E0,-9.412277341E-1,9.221909523E0
6.660000000E-1,-2.964653730E0,-9.320052266E-1,9.304404259E0
