"Time (s)","X (rad/s)","Y (rad/s)","Z (rad/s)"
8.727000000E-3,-8.163144588E-1,-8.014196754E-1,5.428632498E-1
1.870100000E-2,-1.227384329E0,-9.854809046E-1,7.124791741E-1
2.867400000E-2,-1.597776771E0,-1.158994794E0,8.363487124E-1
3.864700000E-2,-1.901196122E0,-1.182989836E0,9.093187451E-1
4.862100000E-2,-2.255731106E0,-6.616654396E-1,9.367935061E-1
5.859400000E-2,-2.442165136E0,5.540048704E-2,8.939910531E-1
6.856700000E-2,-2.469703197E0,8.788381815E-1,7.261671424E-1
7.854100000E-2,-2.505197287E0,1.196315765E0,6.046955585E-1
8.851400000E-2,-2.666317225E0,5.465142727E-1,5.013049841E-1
9.848700000E-2,-2.815486908E0,-3.816495240E-1,4.879842401E-1
1.084610000E-1,-2.816694736E0,-1.150152326E0,4.229429066E-1
1.184340000E-1,-2.578365803E0,-1.715370417E0,2.906038761E-1
1.284070000E-1,-2.175639153E0,-1.701849341E0,1.581749916E-1
1.383810000E-1,-1.718627691E0,-1.514907837E0,1.385039985E-1
1.483540000E-1,-1.294275045E0,-1.436294198E0,2.693195343E-1
1.583270000E-1,-8.696706295E-1,-1.543897271E0,3.678605855E-1
1.683010000E-1,-4.677866399E-1,-1.641388655E0,3.909555078E-1
1.782740000E-1,-1.958519667E-1,-1.326883674E0,3.878464401E-1
1.882470000E-1,-5.234699324E-2,-6.189273000E-1,4.843428731E-1
1.982200000E-1,-5.209700204E-3,2.425504625E-1,6.540893912E-1
2.081940000E-1,2.831603400E-2,1.002974272E0,7.947067022E-1
2.181670000E-1,5.020592362E-2,1.462105870E0,8.337403536E-1
2.281400000E-1,6.071795151E-2,1.558860421E0,7.707470059E-1
2.381140000E-1,6.868133694E-2,1.455074072E0,6.624913812E-1
2.480870000E-1,1.783999428E-2,1.474068761E0,5.819278359E-1
2.580600000E-1,-7.805614918E-2,1.705580592E0,4.851776958E-1
2.680340000E-1,-2.163122892E-1,2.001791239E0,4.318447113E-1
2.780070000E-1,-3.223681450E-1,2.197638273E0,4.212603271E-1
2.879800000E-1,-2.849635184E-1,2.098699808E0,3.388935626E-1
2.979540000E-1,-1.071185693E-1,1.774953127E0,2.613675296E-1
3.079270000E-1,1.891631633E-1,1.619692445E0,2.191881090E-1
3.179000000E-1,5.018624067E-1,1.790562034E0,3.521322012E-1
3.278740000E-1,6.692610383E-1,1.856298685E0,4.578405321E-1
3.378470000E-1,6.078785658E-1,1.617539406E0,4.124267101E-1
3.478200000E-1,4.004579484E-1,1.320074916E0,3.892388344E-1
3.577930000E-1,1.010082141E-1,1.383254647E0,4.404073954E-1
3.677670000E-1,-2.304181755E-1,1.786158919E0,4.851216078E-1
3.777400000E-1,-4.575689137E-1,2.264492273E0,4.625671208E-1
3.877130000E-1,-5.307480097E-1,2.779701233E0,2.732459307E-1
3.976870000E-1,-5.899266601E-1,3.251608610E0,1.774952412E-1
4.076600000E-1,-6.562132835E-1,3.813518047E0,1.583042443E-1
4.176330000E-1,-7.337406278E-1,4.544349194E0,2.310173362E-1
4.276070000E-1,-9.301921725E-1,5.056245804E0,2.886260450E-1
4.375800000E-1,-1.246948004E0,5.403766632E0,2.268722951E-1
4.475530000E-1,-1.649021745E0,5.936267376E0,8.238035440E-2
4.575270000E-1,-1.579015970E0,5.112061977E0,1.217488945E-1
4.675000000E-1,-1.278240442E0,4.207090855E0,1.618846059E-1
4.774730000E-1,-8.881478310E-1,2.890496731E0,1.735772938E-1
4.874470000E-1,-6.336305737E-1,1.743897557E0,2.275771499E-1
4.974200000E-1,-4.678041339E-1,8.738610148E-1,2.207013071E-1
5.073930000E-1,-4.440913498E-1,4.789549410E-1,3.269454539E-1
5.173660000E-1,-4.254899025E-1,4.485808015E-1,4.300899506E-1
5.273400000E-1,-3.356191218E-1,8.039602041E-1,3.909827471E-1
5.373130000E-1,-2.781277299E-1,1.293844461E0,3.056517243E-1
5.472860000E-1,-3.958892524E-1,1.693685293E0,3.253013194E-1
5.572600000E-1,-7.470661402E-1,1.828291178E0,4.925679862E-1
5.672330000E-1,-1.275668740E0,1.755655050E0,6.463152170E-1
5.772060000E-1,-1.911990047E0,1.529880404E0,6.665789485E-1
5.871800000E-1,-2.686617851E0,1.241417766E0,6.453301311E-1
5.971530000E-1,-3.445595503E0,1.265661359E0,5.765110254E-1
6.071260000E-1,-4.102651596E0,1.143906236E0,4.208598733E-1
6.171000000E-1,-4.594003201E0,9.860427380E-1,2.364403307E-1
6.270730000E-1,-4.868284702E0,8.789447546E-1,1.906446069E-1
6.370460000E-1,-4.939306736E0,7.162439823E-1,2.772236168E-1
6.470190000E-1,-4.880444527E0,5.583667755E-1,4.051522911E-1
6.569933750E-1,-4.834827423E0,4.402701557E-1,4.109149277E-1
6.669663750E-1,-4.868863106E0,4.399319291E-1,3.703219593E-1
6.769393750E-1,-4.983302593E0,6.238334179E-1,3.145325184E-1
6.869133750E-1,-5.151004791E0,9.205966592E-1,2.300003171E-1
6.968863750E-1,-5.350836754E0,1.342427373E0,1.371778399E-1
7.068593750E-1,-5.526280403E0,1.497057796E0,-5.308265239E-2
7.168333750E-1,-5.603026867E0,1.710899830E0,-2.233844101E-1
7.268063750E-1,-5.530844212E0,1.800597191E0,-3.780291080E-1
7.367793750E-1,-5.254488468E0,1.699320078E0,-4.344839752E-1
7.467533750E-1,-4.869570255E0,1.447111964E0,-4.397203028E-1
7.567263750E-1,-4.466991901E0,1.137283087E0,-4.330111742E-1
7.666993750E-1,-4.148449421E0,9.238134623E-1,-3.808065355E-1
7.766733750E-1,-4.023313999E0,7.993405461E-1,-3.161551058E-1
7.866463750E-1,-4.112596035E0,6.128684282E-1,-2.474934906E-1
7.966193750E-1,-4.278428078E0,5.661932826E-1,-1.516214758E-1
8.065923750E-1,-4.386293888E0,5.040864944E-1,-2.044058591E-1
8.165663750E-1,-4.346265316E0,4.380629957E-1,-3.370510042E-1
8.265393750E-1,-4.207828045E0,3.466798067E-1,-4.692457914E-1
8.365123750E-1,-4.001259327E0,2.792458832E-1,-6.078385711E-1
8.464863750E-1,-3.768562794E0,2.623422742E-1,-6.099041104E-1
8.564593750E-1,-3.607586145E0,3.212895095E-1,-4.897300899E-1
8.664323750E-1,-3.659959793E0,-5.874384195E-2,-4.220213592E-1
8.764063750E-1,-3.942027807E0,-6.209208965E-1,-2.914568782E-1
8.863793750E-1,-4.178593159E0,-8.580399752E-1,-2.101468146E-1
8.963523750E-1,-4.241388321E0,-1.045374393E0,-2.678280175E-1
9.063263750E-1,-4.111119747E0,-1.172304630E0,-3.368142843E-1
9.162993750E-1,-3.913580894E0,-1.251325130E0,-2.553805411E-1
9.262723750E-1,-3.685913801E0,-1.324216723E0,-8.566769958E-2
9.362463750E-1,-3.471410990E0,-1.288365960E0,1.361336112E-1
9.462193750E-1,-3.390578985E0,-1.183647633E0,2.954018414E-1
9.561923750E-1,-3.419115067E0,-8.383637667E-1,3.386608958E-1
9.661653750E-1,-3.419635296E0,-3.734730482E-1,2.748070657E-1
9.761393750E-1,-3.333839655E0,7.770190388E-2,2.554399669E-1
9.861123750E-1,-3.107598305E0,4.816475213E-1,3.192943037E-1
9.960853750E-1,-2.807911158E0,8.753961921E-1,4.393124282E-1
1.006059375E0,-2.638069153E0,1.095492840E0,5.402573943E-1
1.016032375E0,-2.662994146E0,1.197881579E0,4.734361470E-1
1.026005375E0,-2.794940948E0,1.208647132E0,3.181370795E-1
1.035979375E0,-2.815916777E0,1.211345911E0,2.006296217E-1
1.045952375E0,-2.804929972E0,1.096310735E0,2.192403227E-1
1.055925375E0,-2.800329924E0,9.241745472E-1,1.946344674E-1
1.065898375E0,-1.827318192E0,2.598046064E-1,4.514618590E-2
1.075872375E0,-2.793428600E-1,6.196656227E-1,-1.865270585E-1
1.085845375E0,1.225762844E0,1.282065868E0,-6.636297107E-1
1.095818375E0,2.209551573E0,1.909968257E0,-1.051219821E0
1.105792375E0,2.327758312E0,1.949085832E0,-1.098572373E0
1.115765375E0,1.853712559E0,1.579187393E0,-1.202303052E0
1.125738375E0,1.103679061E0,1.200987577E0,-1.362015486E0
1.135712375E0,4.792544842E-1,8.808438778E-1,-1.478403211E0
1.145685375E0,2.918196023E-1,5.117042065E-1,-1.518956542E0
1.155658375E0,3.386730850E-1,2.177298814E-1,-1.592109680E0
1.165632375E0,4.411483109E-1,-9.901159257E-2,-1.856385827E0
1.175605375E0,5.122449398E-1,-2.693985403E-1,-2.107988358E0
1.185578375E0,5.212687850E-1,-4.285407960E-1,-2.199305773E0
1.195552375E0,4.931872487E-1,-4.961664081E-1,-2.250958204E0
1.205525375E0,4.658099711E-1,-3.531197608E-1,-2.349858522E0
1.215498375E0,4.755008221E-1,-2.119235545E-1,-2.310301781E0
1.225471375E0,6.047471762E-1,-2.564430833E-1,-2.082998514E0
1.235445375E0,5.699146986E-1,-1.554783434E-1,-1.837945104E0
1.245418375E0,4.340947866E-1,-5.062304065E-2,-1.872760057E0
1.255391375E0,3.947744071E-1,1.420787871E-1,-1.781942844E0
1.265365375E0,3.954252601E-1,2.714327872E-1,-1.568096399E0
1.275338375E0,5.961861014E-1,2.680705190E-1,-1.707992315E0
1.285311375E0,1.119457841E0,3.322369754E-1,-1.952327967E0
1.295285375E0,1.725504875E0,9.742209911E-1,-2.262019157E0
1.305258375E0,1.795013070E0,5.685232878E-1,-2.216675520E0
1.315231375E0,1.231667280E0,-3.265561461E-1,-1.827778459E0
1.325204375E0,5.623931885E-1,-1.137301564E0,-1.432245493E0
1.335178375E0,9.220543504E-2,-1.174509287E0,-1.095448613E0
1.345151375E0,-3.608489409E-2,-9.460121989E-1,-8.717994690E-1
1.355124375E0,1.660258025E-1,-4.864844978E-1,-8.171015382E-1
1.365098375E0,3.905353546E-1,2.835273929E-2,-9.632284045E-1
1.375071375E0,5.590674281E-1,4.320800006E-1,-1.198990941E0
1.385044375E0,5.096316934E-1,6.175422668E-1,-1.382862210E0
1.395018375E0,2.729030252E-1,5.904485583E-1,-1.514955997E0
1.404991375E0,-1.770731658E-1,5.976803899E-1,-1.651335716E0
1.414964375E0,-5.829477906E-1,6.196613312E-1,-1.828781843E0
1.424937375E0,-7.679096460E-1,1.095741272E0,-1.980572462E0
1.434911375E0,-1.307249308E0,6.078512669E-1,-2.030032873E0
1.444884375E0,-1.399153709E0,2.900301516E-1,-1.785983086E0
1.454857375E0,-8.508482575E-1,2.836500108E-1,-1.905707240E0
1.464831375E0,-5.980969667E-1,4.467600882E-1,-2.196085215E0
1.474804375E0,-4.265455008E-1,4.307284057E-1,-2.256548643E0
1.484777375E0,-2.028050721E-1,4.890239239E-1,-2.106261015E0
1.494751375E0,2.813684046E-1,2.642843127E-1,-2.058657408E0
1.504724375E0,7.457059622E-1,2.576071024E-2,-2.013282776E0
1.514697375E0,1.063379526E0,-1.254232377E-1,-1.911758065E0
1.524671375E0,1.165845394E0,-3.779718876E-1,-1.993296385E0
1.534644375E0,1.214718938E0,-4.748227894E-1,-1.771972418E0
1.544617375E0,1.310940266E0,-6.195997000E-1,-1.858607173E0
1.554590375E0,1.387579441E0,-6.832622290E-1,-2.124140501E0
1.564564375E0,1.348227620E0,-7.120561004E-1,-2.466241121E0
1.574537375E0,1.157666087E0,-6.130096912E-1,-2.726245403E0
1.584510375E0,7.484676838E-1,-3.863986433E-1,-2.874243021E0
1.594484375E0,1.510718018E-1,-9.859371930E-2,-2.976311684E0
1.604457375E0,-6.246125102E-1,7.479141355E-1,-2.771095753E0
1.614430375E0,-8.437970281E-1,1.718661666E0,-2.043657541E0
1.624404375E0,-1.110047340E0,1.206632137E0,-2.294890642E0
1.634377375E0,-1.248004198E0,1.473338127E0,-3.090110064E0
1.644350375E0,-1.853125989E-1,-9.312289357E-1,-2.527257681E0
1.654324375E0,3.816683590E-2,-1.147199869E0,-1.003527403E0
1.664297083E0,2.046596855E-1,2.543515265E-1,-9.709208608E-1
1.674270083E0,3.332736492E-1,3.481643200E-1,-5.024935007E-1
1.684243083E0,4.501607269E-3,1.291816384E-1,-2.749897838E-1
1.694217083E0,-2.371259332E-1,1.819147170E-2,-2.074152976E-2
1.704190083E0,-3.201374412E-1,2.075632513E-1,2.606794834E-1
1.714163083E0,-3.675370216E-1,8.777267486E-2,5.985347033E-1
1.724137083E0,-3.355894685E-1,-3.779880004E-3,1.141567707E0
1.734110083E0,2.344006896E-1,-1.044451594E0,1.689411759E0
1.744083083E0,7.242801189E-1,-1.898696423E0,1.812509537E0
1.754057083E0,1.036477685E0,-2.496687651E0,1.424760342E0
1.764030083E0,1.374493599E0,-2.429357767E0,7.313227057E-1
1.774003083E0,1.589589238E0,-1.184907556E0,2.887831628E-1
1.783976083E0,1.440445065E0,1.805755347E-1,2.270435169E-2
1.793950083E0,9.284707308E-1,1.162095904E0,-3.320372105E-1
1.803923083E0,2.904700637E-1,1.766584635E0,-6.972237229E-1
1.813896083E0,-3.569489419E-1,2.129021645E0,-9.347585440E-1
1.823870083E0,-8.590187430E-1,1.749912262E0,-1.141178608E0
1.833843083E0,-1.196991801E0,1.122367620E0,-1.390250444E0
1.843816083E0,-1.386759639E0,8.553979397E-1,-1.624567270E0
1.853790083E0,-1.432386875E0,8.860748410E-1,-1.806035519E0
1.863763083E0,-1.195749044E0,2.522337735E-1,-1.737064958E0
1.873736083E0,-5.912822485E-1,-8.308338523E-1,-1.288762569E0
1.883709083E0,-1.112669334E-1,2.151849717E-1,-5.655015707E-1
1.893683083E0,5.690127015E-1,2.418041468E0,1.450274467E0
1.903656083E0,5.747650862E-1,2.328239679E0,2.757275820E0
1.913629083E0,3.376274109E-1,3.869588673E-1,2.422588110E0
1.923603083E0,3.489071876E-2,-1.597904861E-1,1.323985219E0
1.933576083E0,8.444012702E-2,-1.480059046E-2,8.840969950E-2
1.943549083E0,1.477901697E0,-3.476510048E-1,-9.171365499E-1
1.953523083E0,7.183124423E-1,-5.267896503E-2,1.381638795E-1
1.963496083E0,2.083133757E-1,7.533999681E-1,4.786988199E-1
1.973469083E0,-3.868086636E-1,2.757130563E-1,4.280732274E-1
1.983442083E0,-6.593989134E-1,-5.005302429E-1,3.542850316E-1
1.993416083E0,-5.406637192E-1,-7.427354455E-1,3.449876308E-1
2.003389083E0,-2.731952667E-1,-6.330153346E-1,4.403506219E-1
2.013362083E0,1.774185896E-1,-7.053472996E-1,4.669683874E-1
2.023336083E0,1.069820166E0,-3.875741363E-1,1.361283958E-1
2.033309083E0,1.385908484E0,-2.332495451E-1,-2.723642811E-2
2.043282083E0,1.085402489E0,-7.319251299E-1,-5.393621698E-2
2.053256083E0,5.670553446E-1,-7.909594178E-1,-4.151115566E-2
2.063229083E0,3.942582607E-1,-7.489536405E-1,4.154457897E-2
2.073202083E0,3.152071834E-1,-3.270729482E-1,-3.013630956E-2
2.083175083E0,2.282871902E-1,-1.025295928E-1,-2.985960618E-2
2.093149083E0,1.392960846E-1,-8.379507065E-2,1.046860777E-2
2.103122083E0,1.024371311E-1,-1.290965080E-1,6.708954275E-2
2.113095083E0,9.498373419E-2,-1.193394661E-1,1.087651178E-1
2.123069083E0,1.107397974E-1,-8.156306297E-2,1.384071708E-1
2.133042083E0,9.344846755E-2,-8.978453279E-2,1.606576294E-1
2.143015083E0,6.286606193E-2,-1.269585341E-1,1.868956387E-1
2.152989083E0,4.682512209E-2,-1.466105133E-1,2.194898129E-1
2.162962083E0,2.648310177E-2,-1.295596361E-1,2.393098474E-1
2.172935083E0,1.574685425E-2,-9.241598099E-2,2.518678308E-1
2.182908083E0,3.987903474E-4,-4.088540748E-2,2.637197077E-1
2.192882083E0,-3.253519163E-2,-1.731829904E-2,2.554495335E-1
2.202855083E0,-5.918890610E-2,-2.281293273E-2,2.297990322E-1
2.212828083E0,-7.141281664E-2,-4.432145879E-2,1.957759261E-1
2.222802083E0,-8.891351521E-2,-6.951150298E-2,1.641639322E-1
2.232775083E0,-1.054487228E-1,-9.499551356E-2,1.482354701E-1
2.242748083E0,-1.019448042E-1,-1.059573516E-1,1.293491274E-1
2.252722083E0,-1.020366848E-1,-1.109419912E-1,1.003598273E-1
2.262695083E0,-1.036662757E-1,-1.124219075E-1,6.366465986E-2
2.272668083E0,-1.086999997E-1,-1.232740283E-1,2.492497489E-2
2.282641083E0,-1.165043935E-1,-1.759811789E-1,-1.364452206E-2
2.292615083E0,-1.401295066E-1,-2.038237453E-1,-4.671603441E-2
2.302588083E0,-1.571292579E-1,-2.100882977E-1,-5.944754928E-2
2.312561083E0,-1.577469260E-1,-2.024689615E-1,-5.766898021E-2
2.322535083E0,-1.663337648E-1,-1.900884509E-1,-3.531040996E-2
2.332508083E0,-1.647101045E-1,-1.646315753E-1,-1.573452260E-3
2.342481083E0,-1.676435620E-1,-1.630454063E-1,2.296091989E-2
2.352454083E0,-1.793122888E-1,-1.405446231E-1,6.515549868E-2
2.362428083E0,-1.676604301E-1,-1.459282041E-1,9.055886418E-2
2.372401083E0,-1.475403160E-1,-1.469676346E-1,9.866320342E-2
2.382374083E0,-1.394802481E-1,-1.292767823E-1,1.013024002E-1
2.392348083E0,-1.308505088E-1,-1.261124164E-1,9.243527055E-2
2.402321083E0,-1.192204952E-1,-1.369576156E-1,9.540575743E-2
2.412294083E0,-9.402734041E-2,-1.717525870E-1,9.505505115E-2
2.422268083E0,-6.171813607E-2,-2.192804366E-1,9.547982365E-2
2.432241083E0,-4.248322174E-2,-2.815928161E-1,9.405542910E-2
2.442214083E0,-5.152998120E-2,-3.220196068E-1,8.068422973E-2
2.452187083E0,-7.208357751E-2,-2.841305435E-1,5.036221072E-2
2.462161083E0,-1.143849567E-1,-1.966126859E-1,2.128555253E-2
2.472134083E0,-1.833397746E-1,-1.065626889E-1,-2.138968930E-2
2.482107083E0,-2.385724038E-1,-4.259861633E-2,-6.679791957E-2
2.492081083E0,-2.880892456E-1,5.408583954E-2,-8.347865194E-2
2.502054083E0,-3.153552115E-1,1.226254851E-1,-9.464874864E-2
2.512027083E0,-3.298426270E-1,1.683223993E-1,-8.951995522E-2
2.522000083E0,-3.079415858E-1,2.841107845E-1,-8.256217837E-2
2.531974083E0,-2.664466202E-1,3.610990644E-1,-8.365123719E-2
2.541947083E0,-2.362045795E-1,4.126876891E-1,-8.494366705E-2
2.551920083E0,-2.365284264E-1,4.079448581E-1,-1.077749133E-1
2.561894083E0,-2.688861191E-1,4.074199498E-1,-1.195753738E-1
2.571867083E0,-2.952747047E-1,4.000280797E-1,-1.374155581E-1
2.581840083E0,-3.398818374E-1,4.175338447E-1,-1.451243460E-1
2.591814083E0,-3.397457600E-1,3.894292116E-1,-1.259335577E-1
2.601787083E0,-3.475725353E-1,3.446393907E-1,-1.285101622E-1
2.611760083E0,-3.775803149E-1,3.389002383E-1,-8.659902215E-2
2.621733083E0,-3.302492797E-1,2.640909851E-1,-4.998322576E-2
2.631707083E0,-1.865759194E-1,1.249048933E-1,1.986626070E-3
2.641680083E0,-7.436254062E-3,-8.869792521E-2,7.714688778E-2
2.651653083E0,1.358773559E-1,-4.738970101E-1,1.835622936E-1
2.661627083E0,2.108969986E-1,-9.481024146E-1,3.477794826E-1
2.671600083E0,2.075647563E-1,-1.425138235E0,6.335579753E-1
2.681573083E0,4.269724339E-2,-1.743872762E0,8.747916222E-1
2.691546083E0,-7.586127520E-2,-1.767787695E0,9.333388209E-1
2.701520083E0,1.044272352E-2,-1.458927631E0,7.983959317E-1
2.711493083E0,3.029294908E-1,-1.037739635E0,5.437301993E-1
2.721466083E0,6.672770977E-1,-6.893741488E-1,1.252131015E-1
2.731440083E0,7.990672588E-1,-6.545141935E-1,-2.053154707E-1
2.741413083E0,6.540414095E-1,-7.221086621E-1,-3.413633108E-1
2.751386083E0,3.523098230E-1,-7.477370501E-1,-4.244640768E-1
2.761360083E0,6.219545752E-2,-7.296440601E-1,-4.596196711E-1
2.771333083E0,-9.940867126E-2,-6.060350537E-1,-4.356769323E-1
2.781306083E0,-1.221986711E-1,-4.733811617E-1,-3.756159842E-1
2.791279083E0,-5.312597752E-2,-4.016436040E-1,-3.035338521E-1
2.801253083E0,3.547605872E-2,-3.683503568E-1,-2.029217780E-1
2.811226083E0,1.109292731E-1,-4.036433697E-1,-7.522241026E-2
2.821199083E0,1.430896074E-1,-4.203000963E-1,5.200185627E-2
2.831173083E0,1.602687985E-1,-3.989282250E-1,1.217711642E-1
2.841146083E0,1.309782863E-1,-3.160682321E-1,9.178982675E-2
2.851119083E0,6.020479277E-2,-2.689798176E-1,-1.299326122E-2
2.861092083E0,5.532455072E-2,-2.765804827E-1,-1.532225311E-1
2.871066083E0,8.077444881E-2,-2.893471420E-1,-2.915798426E-1
2.881039083E0,9.306040406E-2,-2.611669004E-1,-4.231836796E-1
2.891012083E0,5.054634809E-2,-2.856594622E-1,-5.070869923E-1
2.900986083E0,1.318083028E-3,-3.323292434E-1,-5.468003750E-1
2.910959083E0,-6.091986969E-2,-3.471417427E-1,-5.463933349E-1
2.920932083E0,-1.199448407E-1,-3.129875064E-1,-5.173779130E-1
2.930905083E0,-1.308818609E-1,-2.461874336E-1,-4.605027735E-1
2.940879083E0,-1.197857931E-1,-1.579062939E-1,-4.097455740E-1
2.950852083E0,-1.243499443E-1,-1.052582636E-1,-3.779395223E-1
2.960825083E0,-1.325378418E-1,-1.059296429E-1,-3.583988249E-1
2.970799083E0,-1.797008514E-1,-9.590231627E-2,-3.347857594E-1
2.980772083E0,-2.414403707E-1,-8.954801410E-2,-3.125030994E-1
2.990745083E0,-2.796540856E-1,-1.167194396E-1,-2.975243628E-1
3.000719083E0,-3.141596019E-1,-1.363056600E-1,-2.664508522E-1
3.010692083E0,-3.389431238E-1,-1.570855230E-1,-2.328927368E-1
3.020665083E0,-3.670336306E-1,-1.945447475E-1,-1.888499111E-1
3.030638083E0,-3.908480108E-1,-2.178719044E-1,-1.346136034E-1
3.040612083E0,-4.105604589E-1,-2.178854793E-1,-8.991536498E-2
3.050585083E0,-3.875013292E-1,-2.256030589E-1,-3.039332666E-2
3.060558083E0,-3.458002210E-1,-2.434193343E-1,4.172372632E-3
3.070532083E0,-2.604148984E-1,-3.043413162E-1,2.497546002E-2
3.080505083E0,-1.894384623E-1,-3.276242614E-1,5.308672041E-2
3.090478083E0,-9.926427901E-2,-3.587049246E-1,1.075044870E-1
3.100451083E0,-1.586711407E-1,-2.816655338E-1,1.580579430E-1
3.110425083E0,-2.113192230E-1,-2.137064487E-1,1.662882417E-1
3.120398083E0,-2.227542996E-1,-1.947066635E-1,1.593634784E-1
3.130371083E0,-2.455578297E-1,-1.413728446E-1,1.449789107E-1
3.140345083E0,-2.684466243E-1,-1.110671461E-1,9.375701100E-2
3.150318083E0,-3.016183078E-1,-6.869199872E-2,5.250538141E-2
3.160291083E0,-3.545025587E-1,-4.736273736E-2,4.134007916E-2
3.170264083E0,-3.622227907E-1,-5.275537819E-2,6.673035026E-2
3.180238083E0,-3.184694648E-1,-1.272144318E-1,9.551805258E-2
3.190211083E0,-2.726017237E-1,-1.381027699E-1,1.246411130E-1
3.200184083E0,-1.982214898E-1,-2.130273283E-1,1.263111830E-1
3.210158083E0,-1.246327087E-1,-2.390634716E-1,7.702317834E-2
3.220131083E0,-1.304719448E-1,-1.827466637E-1,3.186422586E-2
3.230104083E0,-1.525965929E-1,-1.526159346E-1,-6.607536972E-2
3.240077083E0,-2.212392986E-1,-2.375769019E-1,-1.465971023E-1
3.250051083E0,-2.052340806E-1,-2.888070643E-1,-1.720031947E-1
3.260024083E0,-4.450938106E-2,-3.386366665E-1,-1.155356616E-1
3.269997083E0,6.981177628E-2,-4.663240612E-1,-7.903173566E-2
3.279971083E0,8.805922419E-2,-5.466518998E-1,-7.390514761E-2
3.289944083E0,8.251801133E-3,-5.721806884E-1,-6.790857762E-2
3.299917083E0,-1.037501022E-1,-4.853994846E-1,-4.343225807E-2
