"Time (s)","X (rad/s)","Y (rad/s)","Z (rad/s)"
1.120999997E-2,1.003684942E-2,1.015999466E-1,2.192598730E-1
2.117500000E-2,-8.266322315E-2,4.575914517E-2,2.088620067E-1
3.113999998E-2,-1.868556738E-1,-5.321750417E-2,1.208423898E-1
4.110500001E-2,-2.859569490E-1,-1.343736500E-1,-2.885567397E-2
5.106999999E-2,-4.022921026E-1,-2.588932216E-1,-1.323836576E-2
6.103500002E-2,-5.554183125E-1,-4.257778823E-1,-2.526329644E-2
7.100100000E-2,-7.301020026E-1,-5.282270312E-1,-5.136680230E-2
8.096599998E-2,-8.045940399E-1,-6.199917793E-1,-4.832122475E-2
9.093100001E-2,-8.007636070E-1,-6.267855167E-1,-3.343096003E-2
1.008960000E-1,-7.868741155E-1,-5.225400329E-1,-4.913507495E-3
1.108610000E-1,-7.116084099E-1,-3.953070045E-1,2.136683278E-2
1.208260000E-1,-5.969276428E-1,-2.934780121E-1,3.266539425E-2
1.307910000E-1,-4.929948151E-1,-1.887513548E-1,3.238549456E-2
1.407570000E-1,-4.404108226E-1,-9.085468203E-2,2.355710045E-2
1.507220000E-1,-4.378634989E-1,-3.623883799E-2,2.280049771E-2
1.606870000E-1,-4.703443944E-1,-4.272753745E-2,2.624948695E-2
1.706520000E-1,-5.281592607E-1,-1.105281562E-1,3.769442439E-2
1.806170000E-1,-6.097207069E-1,-2.167241275E-1,3.008333221E-2
1.905820000E-1,-6.934278607E-1,-3.190289140E-1,9.218795225E-3
2.005470000E-1,-7.744649649E-1,-4.074218571E-1,-9.994929656E-3
2.105120000E-1,-8.492952585E-1,-5.293440223E-1,-9.713700041E-3
2.204780000E-1,-8.926613331E-1,-5.455721021E-1,-2.804353833E-2
2.304430000E-1,-8.938515186E-1,-5.281278491E-1,-6.416272838E-3
2.404080000E-1,-8.419785500E-1,-5.580725670E-1,3.114377335E-2
2.503730000E-1,-7.872335315E-1,-5.634039640E-1,5.036993325E-2
2.603380000E-1,-7.334179878E-1,-5.839093924E-1,4.929621518E-2
2.703030000E-1,-6.749738455E-1,-5.511461496E-1,-6.461058278E-3
2.802680000E-1,-6.341295242E-1,-5.165774226E-1,-6.111262832E-3
2.902330000E-1,-6.113363504E-1,-4.746072888E-1,5.493184924E-2
3.001990000E-1,-5.987494588E-1,-3.886587024E-1,1.552379727E-1
3.101640000E-1,-5.666698217E-1,-2.993019223E-1,2.485940158E-1
3.201290000E-1,-5.350751281E-1,-2.209456414E-1,3.078029156E-1
3.300940000E-1,-5.255032182E-1,-1.261810511E-1,3.173594177E-1
3.400590000E-1,-5.184713602E-1,-2.428612858E-2,2.985613644E-1
3.500240000E-1,-5.217118859E-1,2.764338255E-2,2.931881845E-1
3.599890000E-1,-5.393062234E-1,5.680853873E-2,3.031977415E-1
3.699550000E-1,-5.562939644E-1,9.810031950E-2,3.310685158E-1
3.799200000E-1,-5.758468509E-1,1.657353491E-1,3.740832806E-1
3.898850000E-1,-5.942434669E-1,2.554828227E-1,3.983161747E-1
3.998500000E-1,-6.383416653E-1,3.658156395E-1,3.869143128E-1
4.098150000E-1,-6.930315495E-1,4.754222929E-1,3.501190245E-1
4.197800000E-1,-7.489185929E-1,5.567355156E-1,2.866665721E-1
4.297450000E-1,-7.884566784E-1,6.259796023E-1,1.790564954E-1
4.397100000E-1,-8.051335216E-1,7.003370523E-1,3.474938497E-2
4.496760000E-1,-8.280827999E-1,7.880142331E-1,-1.434736103E-1
4.596410000E-1,-8.439846039E-1,8.510850668E-1,-3.331403434E-1
4.696060000E-1,-8.439587355E-1,8.706164360E-1,-4.921246469E-1
4.795710000E-1,-8.445878625E-1,9.409346581E-1,-5.714980364E-1
4.895360000E-1,-8.232322335E-1,1.103704929E0,-6.439357400E-1
4.995010000E-1,-8.117181063E-1,1.278350592E0,-6.784833670E-1
5.094660000E-1,-8.701377511E-1,1.357522845E0,-6.157118678E-1
5.194320000E-1,-1.011760950E0,1.270481110E0,-5.483899713E-1
5.293970000E-1,-1.163971066E0,1.085851908E0,-5.355426073E-1
5.393620000E-1,-1.248286366E0,8.472274542E-1,-5.727047324E-1
5.493270000E-1,-1.286230922E0,5.856456161E-1,-6.506994367E-1
5.592917916E-1,-1.301504374E0,3.298437893E-1,-7.682415843E-1
5.692567917E-1,-1.290794730E0,1.187624559E-1,-8.817130327E-1
5.792217916E-1,-1.247105360E0,-1.886959188E-3,-9.509029984E-1
5.891867917E-1,-1.165919900E0,-1.883953810E-4,-9.427657127E-1
5.991527917E-1,-1.073008776E0,1.935400665E-1,-8.150286674E-1
6.091177916E-1,-1.001878381E0,5.120890141E-1,-6.129527688E-1
6.190827917E-1,-9.239062071E-1,8.787024021E-1,-4.610374868E-1
6.290477916E-1,-7.839491367E-1,1.185281515E0,-3.954310417E-1
6.390127917E-1,-6.017906070E-1,1.423239827E0,-4.199985266E-1
6.489777917E-1,-4.383161962E-1,1.594180942E0,-4.964610934E-1
6.589427917E-1,-3.318943977E-1,1.682142735E0,-6.103531122E-1
6.689087917E-1,-2.961899340E-1,1.642175078E0,-7.376710773E-1
6.788737917E-1,-3.457753658E-1,1.502242208E0,-8.168250918E-1
6.888387917E-1,-4.770939648E-1,1.423060298E0,-8.250294924E-1
6.988037917E-1,-6.861585975E-1,1.413083792E0,-8.164125681E-1
7.087687916E-1,-9.444753528E-1,1.414634466E0,-7.671992183E-1
7.187337917E-1,-1.224573374E0,1.524697661E0,-7.693682313E-1
7.286987916E-1,-1.478988051E0,1.791137815E0,-7.706694603E-1
7.386637917E-1,-1.493600130E0,2.043380737E0,-7.891809344E-1
7.486297917E-1,-1.265331268E0,2.213952065E0,-7.771354318E-1
7.585947916E-1,-8.485838175E-1,2.298699141E0,-7.708864212E-1
7.685597917E-1,-4.243761003E-1,2.255748510E0,-8.149249554E-1
7.785247916E-1,-1.458630115E-1,2.084269047E0,-9.350768924E-1
7.884897917E-1,-1.808729321E-1,1.635940909E0,-1.079974771E0
7.984547917E-1,-4.161893129E-1,1.230695724E0,-1.180661917E0
8.084197917E-1,-6.207448840E-1,1.097647667E0,-1.164934635E0
8.183857917E-1,-7.004818320E-1,1.093355775E0,-1.071942091E0
8.283507916E-1,-6.723170280E-1,1.100592613E0,-9.851931334E-1
8.383157917E-1,-5.826411247E-1,1.050148487E0,-9.743358493E-1
8.482807917E-1,-4.553143680E-1,9.144045115E-1,-1.069216609E0
8.582457916E-1,-2.897939980E-1,7.629891038E-1,-1.238790751E0
8.682107917E-1,-1.204454601E-1,6.754032969E-1,-1.429944992E0
8.781757916E-1,2.006813511E-2,6.580310464E-1,-1.614108920E0
8.881407917E-1,7.243600488E-2,7.938653231E-1,-1.753562450E0
8.981067917E-1,7.529608160E-2,1.129856110E0,-1.820294976E0
9.080717916E-1,1.015745550E-1,1.599261642E0,-1.849637747E0
9.180367917E-1,2.069523782E-1,2.061567783E0,-1.843065858E0
9.280017916E-1,3.638748825E-1,2.467305422E0,-1.815379381E0
9.379667917E-1,4.775114357E-1,2.799408913E0,-1.830814242E0
9.479317917E-1,5.189656615E-1,3.003392458E0,-1.884976506E0
9.578967917E-1,5.298361778E-1,3.067168474E0,-2.066007376E0
9.678617917E-1,6.330709457E-1,3.227841139E0,-2.423418522E0
9.778277916E-1,8.422238827E-1,3.476289511E0,-2.854550600E0
9.877927917E-1,1.089159846E0,3.539759398E0,-3.057535887E0
9.977577917E-1,1.319041133E0,3.491065741E0,-3.085331202E0
1.007722792E0,1.527064323E0,3.497676611E0,-3.072842598E0
1.017687792E0,1.640921950E0,3.476771116E0,-3.034361124E0
1.027652792E0,1.637859344E0,3.245041370E0,-2.968861341E0
1.037617792E0,1.495269299E0,2.888004541E0,-2.860394239E0
1.047583792E0,1.312663198E0,2.546749592E0,-2.688628197E0
1.057548792E0,1.164459229E0,2.229846001E0,-2.661369085E0
1.067513792E0,1.123752356E0,1.938845634E0,-2.790210485E0
1.077478792E0,1.121343493E0,1.568875074E0,-2.938928127E0
1.087443792E0,1.066509008E0,1.239122033E0,-3.053347349E0
1.097408792E0,9.344356656E-1,8.504008651E-1,-3.016846895E0
1.107373792E0,7.606095076E-1,3.414116800E-1,-2.797821999E0
1.117338792E0,6.251167059E-1,-2.334143519E-1,-2.485951185E0
1.127304792E0,5.477574468E-1,-8.352570534E-1,-2.154646397E0
1.137269792E0,4.909635186E-1,-1.393391848E0,-1.873088479E0
1.147234792E0,3.794183433E-1,-1.933957458E0,-1.615996718E0
1.157199792E0,1.761818677E-1,-2.482914686E0,-1.418384194E0
1.167164792E0,-8.388405293E-2,-3.031449318E0,-1.325838566E0
1.177129792E0,-4.070427716E-1,-3.516014338E0,-1.218015432E0
1.187094792E0,-7.208097577E-1,-4.027892590E0,-1.014964581E0
1.197060792E0,-9.293519855E-1,-4.438737869E0,-7.499665022E-1
1.207025792E0,-9.692285061E-1,-4.715244293E0,-4.827033877E-1
1.216990792E0,-9.014696479E-1,-4.654050827E0,-2.904518247E-1
1.226955792E0,-8.140721917E-1,-4.490224838E0,-1.902889907E-1
1.236920792E0,-8.123305440E-1,-4.481807232E0,-1.788554937E-1
1.246885792E0,-9.669507742E-1,-4.663322926E0,-2.138315886E-1
1.256850792E0,-1.177152753E0,-4.927505493E0,-2.434741706E-1
1.266815792E0,-1.349859238E0,-5.077701569E0,-3.881922364E-1
1.276781792E0,-1.481488347E0,-5.022706032E0,-6.922851205E-1
1.286746792E0,-1.583249927E0,-4.869584560E0,-1.048000336E0
1.296711792E0,-1.610976934E0,-4.879986763E0,-1.357738256E0
1.306676792E0,-1.614427328E0,-4.952914238E0,-1.483451724E0
1.316641792E0,-1.550327897E0,-4.852190495E0,-1.383759737E0
1.326606792E0,-1.333104491E0,-4.473272800E0,-1.446965575E0
1.336571792E0,-1.082992196E0,-3.867906094E0,-1.633485675E0
1.346537792E0,-7.396696806E-1,-3.252492428E0,-1.649079084E0
1.356502792E0,-4.108728766E-1,-2.612438440E0,-1.526251793E0
1.366467792E0,-2.351335287E-1,-1.910725713E0,-1.358749628E0
1.376432792E0,-1.668809652E-1,-1.335681081E0,-1.154361010E0
1.386397792E0,-1.530285329E-1,-1.093736887E0,-8.546247482E-1
1.396362792E0,-2.801558375E-1,-1.103049278E0,-8.686566353E-1
1.406327792E0,-5.468397737E-1,-1.449804783E0,-9.098719358E-1
1.416292792E0,-8.529027104E-1,-1.928887486E0,-9.700468779E-1
1.426258792E0,-1.118706942E0,-2.282214642E0,-1.048723340E0
1.436223792E0,-1.182287574E0,-2.683122158E0,-1.072745562E0
1.446188792E0,-1.149719596E0,-2.879246473E0,-1.054639578E0
1.456153792E0,-9.090730548E-1,-2.946651697E0,-9.716923833E-1
1.466118792E0,-5.632056594E-1,-2.991167068E0,-8.500761986E-1
1.476083792E0,-4.202265739E-1,-2.942615271E0,-7.357583642E-1
1.486048792E0,-3.641457260E-1,-2.941284418E0,-5.418086052E-1
1.496014792E0,-3.558707535E-1,-3.064559937E0,-2.952752113E-1
1.505979792E0,-5.019140244E-1,-3.312031984E0,-9.253117442E-2
1.515944792E0,-7.661212683E-1,-3.520359993E0,6.452997774E-2
1.525909792E0,-1.020728230E0,-3.481688261E0,2.167059332E-1
1.535874792E0,-1.035338759E0,-3.192295790E0,3.906188905E-1
1.545839792E0,-9.015287757E-1,-2.896500826E0,5.202006102E-1
1.555805167E0,-7.524142265E-1,-2.684887409E0,4.501343966E-1
1.565770167E0,-6.471951008E-1,-2.493610144E0,2.428054512E-1
1.575736167E0,-5.193572640E-1,-2.463140249E0,9.285020828E-2
1.585701167E0,-3.139042258E-1,-2.436354399E0,-8.080133237E-3
1.595666167E0,-1.472074687E-1,-2.321141481E0,-1.589363515E-1
1.605631167E0,-4.045253620E-2,-2.134587526E0,-3.563612700E-1
1.615596167E0,7.747704536E-2,-2.033771276E0,-5.288730264E-1
1.625561167E0,1.963586956E-1,-2.042947054E0,-5.814739466E-1
1.635526167E0,1.853581369E-1,-1.976349235E0,-5.636113882E-1
1.645492167E0,4.071146995E-2,-1.929974318E0,-4.949840605E-1
1.655457167E0,-1.661577672E-1,-1.912986875E0,-3.757050335E-1
1.665422167E0,-4.360750020E-1,-1.810088992E0,-2.455457002E-1
1.675387167E0,-5.933841467E-1,-1.644924998E0,-2.168655843E-1
1.685352167E0,-5.580333471E-1,-1.403262854E0,-2.365167886E-1
1.695317167E0,-4.885396659E-1,-1.169008017E0,-2.984114587E-1
1.705282167E0,-4.094592333E-1,-8.888919950E-1,-3.049252927E-1
1.715247167E0,-2.396240383E-1,-7.017893791E-1,-2.203495950E-1
1.725213167E0,-4.806846380E-2,-6.427921057E-1,-2.837508917E-2
1.735178167E0,-7.254567742E-2,-5.880413055E-1,1.619749516E-1
1.745143167E0,-1.455309391E-1,-4.564089775E-1,2.994393408E-1
1.755108167E0,-2.075779587E-1,-4.368456602E-1,4.999165237E-1
1.765073167E0,-3.286282122E-1,-6.050525308E-1,7.891533971E-1
1.775038167E0,-4.031481743E-1,-8.501914144E-1,1.055957794E0
1.785003167E0,-3.605679572E-1,-1.151667595E0,1.155681729E0
1.794969167E0,-3.100861013E-1,-1.168122292E0,1.019719720E0
1.804934167E0,-2.008663863E-1,-1.270135760E0,7.794111967E-1
1.814899167E0,-9.355641156E-2,-1.391050577E0,4.948238432E-1
1.824864167E0,1.930804104E-1,-1.381180525E0,4.226934612E-1
1.834829167E0,2.216910869E-1,-1.349721789E0,4.292064309E-1
1.844794167E0,-8.080059662E-3,-1.415919542E0,6.633803248E-1
1.854759167E0,-2.411546558E-1,-1.633679748E0,9.498630762E-1
1.864725167E0,-3.823858202E-1,-1.795015097E0,1.162116528E0
1.874690167E0,-4.264248908E-1,-2.078801155E0,1.303005219E0
1.884655167E0,-5.066728592E-1,-2.152237415E0,1.473508835E0
1.894620167E0,-4.907670915E-1,-2.156496286E0,1.587128639E0
1.904585167E0,-2.427897602E-1,-2.005437136E0,1.600480199E0
1.914550167E0,9.921154380E-2,-1.749761820E0,1.416695476E0
1.924515167E0,3.531394303E-1,-1.572008252E0,1.113870859E0
1.934480167E0,4.218709767E-1,-1.456946611E0,9.488722682E-1
1.944446167E0,3.853840828E-1,-1.417632103E0,9.974642992E-1
1.954411167E0,4.405429363E-1,-1.347722650E0,1.185699940E0
1.964376167E0,5.482292175E-1,-1.288571119E0,1.352946758E0
1.974341167E0,5.997443795E-1,-1.308402896E0,1.443559408E0
1.984306167E0,7.160412073E-1,-1.517681479E0,1.423920512E0
1.994271167E0,6.334275007E-1,-1.628729343E0,1.233226061E0
2.004236167E0,3.327688873E-1,-1.609360695E0,9.823963046E-1
2.014202167E0,3.833833337E-1,-1.535853028E0,6.394140720E-1
2.024167167E0,6.108287573E-1,-1.066716075E0,5.570827723E-1
2.034132167E0,7.071874142E-1,-5.857533216E-1,6.828885674E-1
2.044097167E0,6.155853271E-1,-5.802829266E-1,8.139094114E-1
2.054062167E0,3.942927122E-1,-7.597397566E-1,8.549898267E-1
2.064027167E0,3.426106274E-1,-7.638620734E-1,8.348784447E-1
2.073992167E0,5.000563264E-1,-6.194032431E-1,7.786406279E-1
2.083957167E0,7.284964323E-1,-4.594223797E-1,6.823638678E-1
2.093923167E0,9.218894839E-1,-4.037480354E-1,5.279228687E-1
2.103888167E0,1.055266738E0,-5.124817491E-1,3.860873878E-1
2.113853167E0,9.956690669E-1,-7.775563002E-1,3.256751299E-1
2.123818167E0,6.676486135E-1,-9.051861763E-1,4.421775341E-1
2.133783167E0,3.294897676E-1,-7.526233196E-1,6.601730585E-1
2.143748167E0,2.647456527E-1,-3.637562692E-1,8.465527892E-1
2.153713167E0,4.784545898E-1,2.044766396E-1,9.852164388E-1
2.163679167E0,8.618416786E-1,7.915340066E-1,9.992086887E-1
2.173644167E0,1.236300945E0,1.202072382E0,9.046123028E-1
2.183609167E0,1.485743999E0,1.386449337E0,8.052048087E-1
2.193574167E0,1.549259305E0,1.468097091E0,7.676036954E-1
2.203539167E0,1.572283983E0,1.561431050E0,7.767490149E-1
2.213504167E0,1.564431071E0,1.755204678E0,7.836945057E-1
2.223469167E0,1.627912879E0,2.082244158E0,8.400695920E-1
2.233434167E0,1.706507325E0,2.505241871E0,8.029988408E-1
2.243400167E0,1.779580712E0,3.017222404E0,7.396954894E-1
2.253365167E0,1.894039154E0,3.412371159E0,6.395391226E-1
2.263330167E0,1.968598962E0,3.769200087E0,5.237923265E-1
2.273295167E0,1.900681853E0,4.137663841E0,4.388964176E-1
2.283260167E0,1.668965459E0,4.341880322E0,3.731248677E-1
2.293225167E0,1.470008969E0,4.539034367E0,2.804155052E-1
2.303190167E0,1.412028790E0,4.727939129E0,2.345388234E-1
2.313156167E0,1.549572349E0,4.805104733E0,1.399579197E-1
2.323121167E0,1.578922033E0,5.029113770E0,-4.565481469E-2
2.333086167E0,1.278990626E0,5.268362045E0,-1.314844191E-1
2.343051167E0,9.616068006E-1,5.501454830E0,-9.573600441E-2
2.353016167E0,7.477563024E-1,5.672879696E0,-6.986556202E-2
2.362981167E0,6.459236741E-1,5.635015965E0,-1.523471177E-1
2.372946167E0,6.352552176E-1,5.456934452E0,-2.995028794E-1
2.382912167E0,7.766608000E-1,5.500843048E0,-3.684441149E-1
2.392877167E0,9.836448431E-1,5.645563602E0,-3.993122578E-1
2.402842167E0,1.054185867E0,5.694394112E0,-4.118573368E-1
2.412807167E0,7.879468799E-1,5.275257587E0,-3.889004290E-1
2.422772167E0,3.809320331E-1,4.723311424E0,-4.746736586E-1
2.432737167E0,4.453892708E-1,4.069683075E0,-7.611314058E-1
2.442702167E0,1.092099786E0,3.085320473E0,-9.775470495E-1
2.452667167E0,1.693434954E0,2.629901171E0,-8.351588249E-1
2.462633167E0,1.822203040E0,2.786592007E0,-8.182471991E-1
2.472598167E0,1.874524593E0,3.032617331E0,-7.939772010E-1
2.482563167E0,1.847966194E0,3.217974186E0,-7.591310740E-1
2.492528167E0,1.886984944E0,3.321437597E0,-6.885572672E-1
2.502493167E0,1.989988565E0,3.452127457E0,-7.748713493E-1
2.512458167E0,1.950111032E0,3.646579981E0,-9.617927074E-1
2.522423167E0,1.795493484E0,3.790964842E0,-1.029643297E0
2.532389167E0,1.632029772E0,3.638469934E0,-8.597854972E-1
2.542354167E0,1.513200879E0,3.626484156E0,-6.859742999E-1
2.552319167E0,1.675660729E0,3.845282078E0,-7.252848744E-1
2.562283750E0,1.762086153E0,4.096219540E0,-9.939339161E-1
2.572248750E0,1.718821526E0,4.541250706E0,-1.523998260E0
2.582213750E0,2.667463779E0,6.108261108E0,-2.109968901E0
2.592178750E0,2.981920481E0,6.514612198E0,-2.392398357E0
2.602143750E0,2.850804090E0,6.763952732E0,-2.279493570E0
2.612109750E0,2.609093428E0,6.789711952E0,-2.303165674E0
2.622074750E0,2.402490616E0,6.907466412E0,-2.299648285E0
2.632039750E0,2.170784712E0,6.728062630E0,-2.483084202E0
2.642004750E0,2.003519773E0,6.259751797E0,-2.624166012E0
2.651969750E0,1.853916883E0,5.486715794E0,-2.537256002E0
2.661934750E0,1.527495384E0,4.677612305E0,-2.528205156E0
2.671899750E0,1.273408055E0,3.784380913E0,-2.549602509E0
2.681865750E0,1.140232444E0,3.074869156E0,-2.415528536E0
2.691830750E0,1.072232127E0,2.364660978E0,-2.125025749E0
2.701795750E0,8.771274686E-1,1.974877357E0,-1.756516695E0
2.711760750E0,2.415723950E-1,2.409969330E0,-1.096450686E0
2.721725750E0,-4.852037132E-1,2.935715675E0,-3.251526952E-1
2.731690750E0,-1.009217381E0,3.304484129E0,1.184013188E-1
2.741655750E0,-1.276226878E0,3.570235252E0,1.378196198E-2
2.751620750E0,-1.387884140E0,3.536320925E0,-3.425739408E-1
2.761586750E0,-1.499042869E0,3.499914408E0,-8.720987439E-1
2.771551750E0,-1.623546839E0,3.519170761E0,-1.222605228E0
2.781516750E0,-1.482022762E0,3.047521830E0,-1.081656933E0
2.791481750E0,-1.031353116E0,2.235687733E0,-5.530675054E-1
2.801446750E0,-9.304907322E-1,2.288229227E0,-3.868047297E-1
2.811411750E0,-1.211651206E0,2.501990557E0,-3.449006379E-1
2.821376750E0,-1.451688409E0,2.574353933E0,-3.093881905E-1
2.831342750E0,-1.561342597E0,2.425772190E0,-1.484203339E-1
2.841307750E0,-1.255415440E0,2.175005436E0,6.804966182E-2
2.851272750E0,-8.908405304E-1,2.125338078E0,8.091113530E-3
2.861237750E0,-6.899734735E-1,1.890335321E0,-2.268159389E-1
2.871202750E0,-7.309381962E-1,1.229275227E0,-4.905890822E-1
2.881167750E0,-9.123274088E-1,3.570268452E-1,-6.509310603E-1
2.891132750E0,-1.016540885E0,5.313605815E-2,-6.550037265E-1
2.901097750E0,-9.061171412E-1,5.153576285E-2,-5.166274905E-1
2.911063750E0,-6.764817238E-1,3.294401765E-1,-3.661514819E-1
2.921028750E0,-3.419226408E-1,7.283361554E-1,-2.999604940E-1
2.930993750E0,4.661854729E-2,7.460396886E-1,-3.298013806E-1
2.940958750E0,1.879530400E-1,5.254660845E-1,-4.505142272E-1
2.950923750E0,1.929098070E-1,6.427458525E-1,-5.570301414E-1
2.960888750E0,3.033327162E-1,1.184048295E0,-6.397002935E-1
2.970853750E0,6.525182128E-1,2.217831850E0,-8.105004430E-1
2.980819750E0,1.132766604E0,3.300421238E0,-9.551143646E-1
2.990784750E0,1.431505561E0,3.334077358E0,-1.007469416E0
3.000749750E0,1.254615188E0,2.669096708E0,-9.680954814E-1
3.010714750E0,6.724074483E-1,1.562389851E0,-7.248986363E-1
3.020679750E0,8.568167686E-2,3.336104751E-1,-4.524796009E-1
3.030644750E0,-1.962838620E-1,-1.501095444E-1,-3.211737871E-1
3.040609750E0,-2.779311314E-2,4.282928109E-1,-3.375016153E-1
3.050574750E0,3.995611668E-1,1.014476299E0,-3.206007779E-1
3.060540750E0,6.682490706E-1,1.148284674E0,-3.147825599E-1
3.070505750E0,5.970556140E-1,6.992325187E-1,-2.438861430E-1
3.080470750E0,2.930147946E-1,1.440656483E-1,-2.207331508E-1
3.090435750E0,-1.933916286E-2,-2.632626295E-1,-2.223851681E-1
3.100400750E0,-2.515015602E-1,-5.096969008E-1,-2.546307445E-1
3.110365750E0,-4.154780805E-1,-6.629325747E-1,-3.500977755E-1
3.120330750E0,-5.407114029E-1,-6.476833224E-1,-4.796128869E-1
3.130296750E0,-5.122942924E-1,-4.882788062E-1,-5.569378734E-1
3.140261750E0,-1.853220314E-1,-3.944862783E-1,-4.372042418E-1
3.150226750E0,2.203012556E-1,-2.446916997E-1,-1.668887138E-1
3.160191750E0,4.623828828E-1,-3.046062775E-2,4.459345341E-2
3.170156750E0,4.760533571E-1,-3.154647350E-2,1.840818822E-1
3.180121750E0,3.337563872E-1,-1.604053825E-1,2.362281680E-1
3.190086750E0,1.270506084E-1,-3.549077511E-1,1.048118249E-1
3.200051750E0,-9.520615637E-2,-4.540359378E-1,-1.304417104E-1
3.210017750E0,-2.540040314E-1,-4.408493340E-1,-3.194643855E-1
3.219982750E0,-2.886994481E-1,-4.124541879E-1,-4.531992674E-1
3.229947750E0,-3.292300403E-1,-3.865068257E-1,-5.324862003E-1
3.239912750E0,-4.163068831E-1,-3.595029116E-1,-4.146245420E-1
3.249877750E0,-3.773135543E-1,-3.669488430E-1,-2.634534240E-1
3.259842750E0,-3.074686825E-1,1.115884259E-1,-3.558270335E-1
3.269807750E0,-1.250909865E-1,6.065700054E-1,-3.721375167E-1
3.279773750E0,1.020710692E-1,1.048031092E0,-1.978746206E-1
3.289738750E0,3.889196515E-1,1.402584314E0,2.491946146E-2
3.299703750E0,5.409079194E-1,1.804868937E0,1.492970735E-1
3.309668750E0,5.380209088E-1,1.981191754E0,1.791900992E-1
3.319633750E0,2.008687556E-1,2.106562853E0,1.152238995E-1
