"Time (s)","Acceleration x (m/s^2)","Acceleration y (m/s^2)","Acceleration z (m/s^2)"
0.000000000E0,1.900093317E0,4.942742825E0,7.196366310E0
2.540468000E-3,1.835415363E0,4.961906910E0,7.344885826E0
5.056927000E-3,1.730014324E0,4.918787956E0,7.383213520E0
7.587604000E-3,1.643777132E0,4.856505871E0,7.433518887E0
1.011838500E-2,1.547958136E0,4.825364590E0,7.493405819E0
1.264911400E-2,1.461720705E0,4.810991287E0,7.577247143E0
1.517984300E-2,1.334760427E0,4.755895615E0,7.725766659E0
1.771057300E-2,1.303619146E0,4.722359180E0,7.843145370E0
2.024135400E-2,1.236545801E0,4.703195095E0,7.946150780E0
2.277208300E-2,1.191031694E0,4.679240227E0,8.001246452E0
2.530286400E-2,1.064071298E0,4.676845074E0,8.140184402E0
2.783359300E-2,1.025743604E0,4.734336376E0,8.283913612E0
3.036432300E-2,1.004184246E0,4.782246113E0,8.372546196E0
3.289510400E-2,9.730432034E-1,4.799014568E0,8.413269997E0
3.542276000E-2,9.562747478E-1,4.801409721E0,8.449201584E0
3.795348900E-2,8.963878155E-1,4.849319458E0,8.482737541E0
4.048421800E-2,8.915967941E-1,4.885251522E0,8.568975449E0
4.301494800E-2,9.155516624E-1,4.913997173E0,8.717494965E0
4.554567700E-2,8.556646109E-1,4.937952042E0,8.889969826E0
4.807640600E-2,8.101505041E-1,4.933160782E0,8.992975235E0
5.060718700E-2,7.526590824E-1,4.878065109E0,9.014534950E0
5.313791600E-2,6.209077835E-1,4.810991287E0,9.160658836E0
5.566869800E-2,5.179021358E-1,4.777454853E0,9.201381683E0
5.819942700E-2,4.268740416E-1,4.679240227E0,9.239709854E0
6.073015600E-2,3.526141644E-1,4.557070732E0,9.330738068E0
6.326088500E-2,2.328402400E-1,4.415737629E0,9.292409897E0
6.583187500E-2,1.394165754E-1,4.231286049E0,9.309177399E0
6.836265600E-2,4.359745979E-2,4.042043209E0,9.215754509E0
7.089338500E-2,-5.461716652E-2,3.721048832E0,9.163053513E0
7.342411400E-2,-3.013514578E-1,3.249139786E0,9.076816559E0
7.595484300E-2,-4.211254120E-1,2.930541039E0,8.945065498E0
7.848557300E-2,-4.929897487E-1,2.767648458E0,8.830082893E0
8.101640600E-2,-5.552721620E-1,2.547264338E0,8.710309029E0
8.354708300E-2,-4.570575655E-1,2.463422775E0,8.657608032E0
8.607786400E-2,-3.253062665E-1,2.463422775E0,8.683959007E0
8.860859300E-2,-1.360634267E-1,2.480191231E0,8.681562424E0
9.113932300E-2,5.317932367E-2,2.489773035E0,8.897155762E0
9.367010400E-2,2.687724233E-1,2.614337921E0,9.000162125E0
9.619687500E-2,5.873709917E-1,2.652665377E0,9.040884972E0
9.872755200E-2,8.245234489E-1,2.726925135E0,9.112749100E0
1.012583330E-1,1.092817068E0,2.817953348E0,9.278037071E0
1.037891140E-1,1.428184032E0,2.784416676E0,9.282827377E0
1.063198430E-1,1.713246107E0,2.796394110E0,9.237314224E0
1.088505730E-1,1.976748466E0,2.856281281E0,9.237314224E0
1.113813540E-1,2.252228498E0,2.887422562E0,9.256477356E0
1.139120830E-1,2.491776466E0,2.935332060E0,9.481653214E0
1.164428120E-1,2.697787523E0,2.942518473E0,9.587054253E0
1.189735410E-1,2.858284712E0,2.937727451E0,9.622985840E0
1.215043230E-1,2.973267794E0,2.885026932E0,9.601427078E0
1.240350520E-1,3.112205505E0,2.832326412E0,9.493629456E0
1.265810930E-1,3.124182701E0,2.755671024E0,9.438533783E0
1.291118230E-1,3.133764744E0,2.645478964E0,9.333132744E0
1.316425520E-1,3.131369352E0,2.477795601E0,9.160658836E0
1.341732810E-1,3.121787310E0,2.365208149E0,9.057652473E0
1.367040620E-1,3.105019093E0,2.209501982E0,8.985788345E0
1.392347910E-1,3.138555765E0,2.094518900E0,9.129517555E0
1.417655200E-1,3.176883221E0,1.974745035E0,9.381042480E0
1.442963020E-1,3.162510633E0,1.859762192E0,9.711618423E0
1.468269790E-1,3.121787310E0,1.799875021E0,1.011884975E1
1.493577600E-1,3.066691160E0,1.747174740E0,1.028653336E1
1.518884890E-1,2.951708317E0,1.677705765E0,1.040630817E1
1.544192180E-1,2.793606758E0,1.620214224E0,1.035360718E1
1.569718230E-1,2.609154940E0,1.660937309E0,1.021227360E1
1.595026040E-1,2.395957232E0,1.677705765E0,1.023862362E1
1.620333330E-1,2.139641047E0,1.596259594E0,1.017155075E1
1.645640620E-1,1.823437929E0,1.490858436E0,1.023862362E1
1.670947910E-1,1.615031242E0,1.418994188E0,1.042547035E1
1.696255730E-1,1.420997620E0,1.330361366E0,1.074167442E1
1.721563020E-1,1.207800031E0,1.301615715E0,1.127347088E1
1.746870310E-1,9.466929436E-1,1.284847260E0,1.198253155E1
1.772177600E-1,7.957776785E-1,1.260892510E0,1.245683670E1
1.797485410E-1,7.334952354E-1,1.272869825E0,1.245923233E1
1.822792700E-1,6.137212515E-1,1.287242770E0,1.194659996E1
1.848100000E-1,4.963428974E-1,1.272869825E0,1.150104046E1
1.873630200E-1,4.053147435E-1,1.306406617E0,1.145552635E1
1.898937500E-1,1.082753539E-1,1.368689060E0,1.151541424E1
1.924245310E-1,-1.139768958E0,1.538768053E0,1.183880424E1
1.949552600E-1,-1.111023188E0,1.641773701E0,1.198732281E1
1.974859890E-1,-7.133737803E-1,1.589073181E0,1.189389992E1
2.000167700E-1,-4.187299013E-1,1.572304726E0,1.187713051E1
2.025475000E-1,-5.701267719E-2,1.569909334E0,1.203523254E1
2.050782290E-1,3.118910193E-1,1.593863964E0,1.203044224E1
2.076089580E-1,7.382861376E-1,1.601050615E0,1.203044224E1
2.101397390E-1,1.284455299E0,1.598654985E0,1.182443047E1
2.126704680E-1,1.662940979E0,1.469299078E0,1.158248806E1
2.152011980E-1,1.914466381E0,1.423785090E0,1.127347088E1
2.177472910E-1,2.067776680E0,1.356711626E0,1.092373085E1
2.202780730E-1,2.125268221E0,1.251310587E0,1.069137001E1
2.228088020E-1,2.139641047E0,1.162677884E0,1.048056698E1
2.253395830E-1,2.221087456E0,1.021344662E0,1.018352795E1
2.278702600E-1,2.132454872E0,9.446893334E-1,1.011405849E1
2.304009890E-1,2.067776680E0,8.584521413E-1,9.953561783E0
2.329317700E-1,1.998307943E0,7.937742472E-1,9.915234566E0
2.354625520E-1,1.895302296E0,6.787912250E-1,9.836183548E0
2.379932290E-1,1.763550997E0,5.781811476E-1,9.797855377E0
2.405240100E-1,1.483279943E0,3.314468265E-1,9.735573769E0
2.430547390E-1,4.604107141E-1,-8.974335790E-1,9.582262993E0
2.455854680E-1,-1.935549378E-1,-1.692732573E0,9.448115349E0
2.481294790E-1,-2.510464191E-1,-1.678359747E0,9.416975021E0
2.506602600E-1,-3.588429391E-1,-1.549003839E0,9.416975021E0
2.531909890E-1,-3.157243431E-1,-1.398088694E0,9.493629456E0
2.557217180E-1,-2.750011981E-1,-1.196868420E0,9.618194580E0
2.582524480E-1,-2.246961594E-1,-9.860664010E-1,9.761923790E0
2.607832290E-1,-1.216905713E-1,-7.776597142E-1,9.828996658E0
2.633139580E-1,-5.222171545E-2,-7.105862498E-1,9.831393242E0
2.658446870E-1,-4.263979197E-2,-6.890270114E-1,9.752342224E0
2.683754680E-1,5.078393221E-2,-6.938180327E-1,9.508003235E0
2.709061980E-1,1.394165754E-1,-6.578857303E-1,9.167844772E0
2.734369790E-1,1.657668352E-1,-5.668576360E-1,8.854038239E0
2.759677080E-1,2.759588361E-1,-3.967786431E-1,8.628862381E0
2.785122390E-1,2.999136448E-1,-1.668126583E-1,8.774987221E0
2.810430200E-1,3.789644241E-1,7.033967972E-2,9.021720886E0
2.835737500E-1,6.760038137E-1,2.140684128E-1,8.990579605E0
2.861044790E-1,1.174263239E0,3.027011156E-1,8.973811150E0
2.886352600E-1,1.524003267E0,5.494353771E-1,9.376252174E0
2.911659890E-1,1.368296981E0,8.344973326E-1,1.016436386E1
2.936967180E-1,1.195822597E0,9.902034402E-1,1.036558342E1
2.962274480E-1,1.332364917E0,8.536611795E-1,9.939188957E0
2.987582290E-1,1.368296981E0,7.530510426E-1,9.836183548E0
3.012889580E-1,1.468907118E0,6.979550719E-1,9.761923790E0
3.038196870E-1,1.607845068E0,7.458646297E-1,9.817019463E0
3.063504160E-1,1.670127392E0,7.841922641E-1,9.900861740E0
3.088997910E-1,1.765946627E0,7.578420639E-1,9.742759705E0
3.114305200E-1,1.691686869E0,7.722148895E-1,9.498420715E0
3.139613020E-1,1.555144310E0,8.440792561E-1,9.278037071E0
3.164919790E-1,1.346737742E0,8.392882943E-1,9.074421883E0
3.190227080E-1,1.121562839E0,8.584521413E-1,8.861224174E0
3.215534890E-1,8.652465343E-1,8.824069500E-1,8.698330879E0
3.240842180E-1,6.448625326E-1,9.327119589E-1,8.461178780E0
3.266150000E-1,5.202976465E-1,9.638531804E-1,8.250376701E0
3.291457290E-1,4.508287907E-1,8.608475924E-1,8.097065926E0
3.316764580E-1,3.933372498E-1,8.560566902E-1,7.867100239E0
3.342071870E-1,3.789644241E-1,8.009606600E-1,7.704207897E0
3.367379160E-1,3.957327604E-1,7.003505230E-1,7.579642773E0
3.392800520E-1,4.292694330E-1,6.165087819E-1,7.476637363E0
3.418107810E-1,4.556198120E-1,5.662037730E-1,7.457473278E0
3.443415620E-1,5.107157230E-1,4.512207806E-1,7.414354801E0
3.468722390E-1,5.562299490E-1,3.577971160E-1,7.380818367E0
3.494030200E-1,6.161167622E-1,2.380231917E-1,7.328117371E0
3.519337500E-1,7.718229294E-1,1.230402291E-1,7.493405819E0
3.544644790E-1,1.116771817E0,-1.117166877E-1,8.065924644E0
3.569952080E-1,2.139641047E0,-5.716485381E-1,9.658917427E0
3.595259370E-1,4.077582836E0,-9.118065238E-1,1.333358192E1
3.620567180E-1,4.868091106E0,-8.830607533E-1,1.477326488E1
3.645874480E-1,3.291866302E0,-6.171626449E-1,1.154895115E1
3.671181770E-1,1.612635851E0,-6.219536662E-1,9.079213142E0
3.696634890E-1,6.927721500E-1,-7.177727818E-1,8.137789726E0
3.721942700E-1,2.999136448E-1,-7.225638032E-1,7.649111748E0
3.747250000E-1,2.400266528E-1,-8.351512551E-1,7.411959171E0
3.772557290E-1,5.078393221E-2,-1.129795074E0,7.603597641E0
3.797864580E-1,-1.791820526E-1,-1.331015348E0,8.374941826E0
3.823172390E-1,-2.989559770E-1,-1.309455872E0,9.335528374E0
3.848479680E-1,-2.175097167E-1,-9.956482053E-1,9.891280174E0
3.873787500E-1,-1.145041287E-1,-5.860213637E-1,1.016915512E1
3.899094790E-1,-9.054934978E-2,-2.123267651E-1,1.047817135E1
3.924402080E-1,-1.264815331E-1,7.273516059E-2,1.077281570E1
3.949709370E-1,-2.055323124E-1,1.565769017E-1,1.092373085E1
3.975016660E-1,-2.797921598E-1,1.685543060E-1,1.083509731E1
4.000797910E-1,-3.253062665E-1,1.134583056E-1,1.068178749E1
4.026105730E-1,-1.528317928E-1,9.908545017E-2,1.041828442E1
4.051413020E-1,6.036579609E-2,1.045274734E-2,1.021466923E1
4.076720310E-1,2.520040870E-1,-1.380669475E-1,1.008291817E1
4.102027600E-1,4.484333992E-1,-1.620217562E-1,9.951167107E0
4.127335410E-1,5.753936768E-1,-2.554453611E-1,9.881697655E0
4.152642180E-1,6.089303493E-1,-2.722137570E-1,9.855347633E0
4.177950000E-1,5.849754810E-1,-3.033549190E-1,9.817019463E0
4.203257290E-1,5.370659828E-1,-3.824057579E-1,9.805043221E0
4.228565100E-1,4.819700718E-1,-4.758294225E-1,9.807437897E0
4.253872390E-1,4.532243013E-1,-5.261345506E-1,9.862533569E0
4.279179680E-1,4.556198120E-1,-5.405073762E-1,9.879302025E0
4.304653120E-1,5.202976465E-1,-5.788349509E-1,9.934397697E0
4.329960410E-1,7.167268991E-1,-5.476937890E-1,9.970331192E0
4.355267700E-1,8.963878155E-1,-4.782248139E-1,9.840974808E0
4.380575000E-1,1.119167328E0,-4.375017285E-1,9.745155334E0
4.405882810E-1,1.452138662E0,-5.381118655E-1,9.608613014E0
4.431189580E-1,1.416206598E0,-5.189480186E-1,9.455303192E0
4.456497390E-1,1.183845282E0,-3.321006894E-1,9.352296829E0
4.481804680E-1,8.269189596E-1,-1.236940622E-1,9.287618637E0
4.507111980E-1,8.317098618E-1,-1.350206137E-2,9.124727249E0
4.532419790E-1,1.193427205E0,6.794422865E-2,9.208567619E0
4.557727080E-1,1.289246321E0,4.638490081E-2,9.242104530E0
4.583034370E-1,1.210195541E0,-8.297091722E-2,9.297201157E0
4.608110930E-1,1.159890413E0,-1.979538798E-1,9.172636032E0
4.633418750E-1,1.085630655E0,-4.494791031E-1,9.045676231E0
4.658726040E-1,1.167076945E0,-6.626767516E-1,8.904342651E0
4.684033330E-1,1.203009009E0,-7.872416377E-1,8.770195961E0
4.709340620E-1,1.100003481E0,-9.429478049E-1,8.724681854E0
4.734648430E-1,1.250918627E0,-9.860664010E-1,8.394105911E0
4.759955730E-1,1.483279943E0,-9.405522943E-1,8.245585442E0
4.785263020E-1,1.619822264E0,-9.189930558E-1,8.336613655E0
4.810570310E-1,1.777923822E0,-8.926426768E-1,8.434828758E0
4.835878120E-1,1.933629990E0,-9.022246003E-1,8.418059349E0
4.861185410E-1,2.027053595E0,-8.399421573E-1,8.307868004E0
4.886492700E-1,1.885720491E0,-8.351512551E-1,8.274332047E0
4.911945310E-1,1.564726353E0,-9.477385879E-1,8.420455933E0
4.937253120E-1,1.294037223E0,-1.060326099E0,8.640839577E0
4.962560410E-1,9.778339863E-1,-1.098653793E0,8.820500374E0
4.987867700E-1,7.670319080E-1,-1.093862772E0,8.894761086E0
5.013175000E-1,5.586252213E-1,-1.089071989E0,9.038488388E0
5.038482290E-1,2.520040870E-1,-1.096258402E0,9.198986053E0
5.063790100E-1,2.682906389E-2,-1.120213032E0,9.345110893E0
5.089097390E-1,-1.839730144E-1,-1.065117121E0,9.424160957E0
5.114404680E-1,-2.869786024E-1,-1.031580448E0,9.448115349E0
5.139712500E-1,-3.588429391E-1,-9.645070434E-1,9.373855591E0
5.165019790E-1,-5.672495961E-1,-9.142020345E-1,9.282827377E0
5.190326560E-1,-7.660742998E-1,-8.279647231E-1,9.033698082E0
5.215777600E-1,-9.553171396E-1,-7.537048459E-1,8.758217812E0
5.241085410E-1,-9.505261183E-1,-6.770495772E-1,8.439620018E0
5.266392700E-1,-1.077486515E0,-5.117616057E-1,8.152162552E0
5.291700000E-1,-1.137373447E0,-3.895921707E-1,7.788049221E0
5.317007290E-1,-1.144559860E0,-2.841911316E-1,7.361654282E0
5.342315100E-1,-1.149350882E0,-1.931629181E-1,6.968795776E0
5.367622390E-1,-1.197260380E0,-1.021347642E-1,6.674151897E0
5.392929680E-1,-1.273915768E0,-1.404624581E-1,6.326807499E0
5.418236980E-1,-1.226006150E0,-1.189031005E-1,6.149542332E0
5.443544790E-1,-1.166119218E0,-1.021347642E-1,5.876457691E0
5.468852080E-1,-1.103836775E0,-7.578450441E-2,5.668050766E0
5.494159370E-1,-9.768763781E-1,-1.835810542E-1,5.509949207E0
5.519609890E-1,-8.163793087E-1,-2.937730551E-1,5.303938389E0
5.544917700E-1,-7.205601931E-1,-3.704283834E-1,5.308729172E0
5.570225000E-1,-7.828426361E-1,-5.548802018E-1,5.342265606E0
5.595531770E-1,-8.331476450E-1,-7.225638032E-1,5.454853058E0
5.620839580E-1,-7.349330783E-1,-9.070155025E-1,5.452457905E0
5.646147390E-1,-5.983908176E-1,-1.098653793E0,5.541090965E0
5.671454680E-1,-5.313174129E-1,-1.254359961E0,5.682423592E0
5.696761980E-1,-5.097581148E-1,-1.381320238E0,5.969881058E0
5.722069270E-1,-4.714304209E-1,-1.592122555E0,6.132773876E0
5.747377080E-1,-4.043570161E-1,-1.800529003E0,6.290875435E0
5.772684370E-1,-3.708203435E-1,-1.929884911E0,6.408253670E0
5.797991660E-1,-4.834078252E-1,-1.939466715E0,6.585519314E0
5.823780730E-1,-7.924245596E-1,-1.709500790E0,6.678942680E0
5.849088020E-1,-1.226006150E0,-1.719082832E0,6.666965485E0
5.874395310E-1,-1.487113357E0,-2.068822622E0,6.556773186E0
5.899702600E-1,-1.611678243E0,-2.406584978E0,6.489700317E0
5.925010410E-1,-1.602096319E0,-2.679669857E0,6.434603691E0
5.950317700E-1,-1.506277084E0,-2.964731455E0,6.355553150E0
5.975625000E-1,-1.348175526E0,-3.074923515E0,6.331598282E0
6.000932290E-1,-1.199655890E0,-3.218652248E0,6.233383656E0
6.026240100E-1,-1.175701141E0,-3.304889441E0,6.048931599E0
6.051547390E-1,-1.199655890E0,-3.388731241E0,5.953112602E0
6.076854680E-1,-1.324220777E0,-3.498923302E0,5.806988716E0
6.102161980E-1,-1.415248990E0,-3.585160732E0,5.605768204E0
6.127258330E-1,-1.465553999E0,-3.544437408E0,5.493180752E0
6.152566140E-1,-1.602096319E0,-3.417477131E0,5.347056866E0
6.177872910E-1,-1.829666734E0,-3.256979942E0,5.131464005E0
6.203180730E-1,-2.059632778E0,-3.213861227E0,5.090740681E0
6.228488020E-1,-2.186593056E0,-3.328844309E0,5.672841549E0
6.253795830E-1,-2.248875618E0,-3.266561985E0,5.869271278E0
6.279103120E-1,-2.416558981E0,-2.995872736E0,5.416525841E0
6.304410410E-1,-2.735157728E0,-2.768302202E0,5.100322247E0
6.329717700E-1,-3.013033152E0,-2.696438074E0,5.088345051E0
6.355025000E-1,-3.051360607E0,-2.737161398E0,5.234469414E0
6.380332810E-1,-2.900445700E0,-2.785070896E0,5.342265606E0
6.405640100E-1,-2.644129515E0,-2.773093224E0,5.186559677E0
6.431101040E-1,-2.490818977E0,-2.717997313E0,4.810469627E0
6.456408850E-1,-2.466864109E0,-2.677274227E0,4.364910603E0
6.481716140E-1,-2.459677696E0,-2.777884245E0,3.996007204E0
6.507023430E-1,-2.502796173E0,-2.880889893E0,3.675013065E0
6.532330730E-1,-2.536333084E0,-3.017431974E0,3.310900211E0
6.557638540E-1,-2.589033365E0,-3.194697618E0,3.121657610E0
6.582945830E-1,-2.706412077E0,-3.415081501E0,2.970742226E0
6.608253120E-1,-2.809417486E0,-3.589951515E0,2.977928877E0
6.633560410E-1,-2.969914436E0,-3.815126419E0,3.097702742E0
6.658868230E-1,-3.211858034E0,-4.083420277E0,3.195917368E0
6.684175520E-1,-3.552015781E0,-4.327759266E0,3.454628944E0
6.709482810E-1,-3.911337376E0,-4.531374454E0,3.744482040E0
6.734928120E-1,-4.419178963E0,-4.631984711E0,4.209204197E0
6.760235410E-1,-5.051585674E0,-4.476278782E0,4.472707272E0
6.785542700E-1,-5.123449326E0,-4.538560867E0,4.750582695E0
6.810850000E-1,-5.279156208E0,-4.615216732E0,5.085949898E0
6.836157810E-1,-5.456421375E0,-4.653543949E0,5.476412773E0
6.861465100E-1,-5.729506016E0,-4.653543949E0,5.850107193E0
6.886772910E-1,-5.918748379E0,-4.610425472E0,6.264525414E0
6.912080200E-1,-5.981030941E0,-4.543352127E0,6.583123684E0
6.937387500E-1,-6.012172699E0,-4.531374454E0,6.899326801E0
6.962695310E-1,-6.040917873E0,-4.624797821E0,7.263439655E0
6.988002600E-1,-6.088827610E0,-4.643961906E0,7.629947662E0
7.013309370E-1,-6.167878628E0,-4.670312405E0,7.833563328E0
7.038746870E-1,-6.302024841E0,-4.658335209E0,7.929382801E0
7.064054680E-1,-6.484081268E0,-4.598448277E0,7.958128452E0
7.089361980E-1,-6.596669197E0,-4.581679344E0,7.819190979E0
7.114669270E-1,-6.711651802E0,-4.574492931E0,7.565269947E0
7.139976560E-1,-6.876939774E0,-4.560120583E0,7.282603264E0
7.165284370E-1,-6.881731033E0,-4.651148319E0,6.904117584E0
7.190591660E-1,-6.824239254E0,-4.682289600E0,6.631033421E0
7.215898950E-1,-6.764352322E0,-4.730199337E0,6.317225933E0
7.241206250E-1,-6.723629475E0,-4.888300896E0,5.967485905E0
7.266514060E-1,-6.809866428E0,-5.142221451E0,5.660864353E0
7.291821350E-1,-7.015878201E0,-5.312300682E0,5.426107883E0
7.317128640E-1,-7.207516193E0,-5.453634262E0,5.210514069E0
7.342579160E-1,-7.413527012E0,-5.606944561E0,5.085949898E0
7.367886450E-1,-7.595583439E0,-5.745882034E0,5.047621727E0
7.393193750E-1,-7.736917019E0,-5.868051529E0,5.109904289E0
7.418501560E-1,-7.863876820E0,-6.069271564E0,5.244051456E0
7.443808850E-1,-8.077075005E0,-6.268096447E0,5.430898666E0
7.469116660E-1,-8.333391190E0,-6.426198006E0,5.759079456E0
7.494423950E-1,-8.721458435E0,-6.586695194E0,6.041745663E0
7.519730730E-1,-9.176599503E0,-6.507644653E0,6.355553150E0
7.545038540E-1,-9.641321182E0,-6.282469749E0,6.774761677E0
7.570346350E-1,-1.043901634E1,-6.131554127E0,7.289789677E0
7.595653640E-1,-1.133013535E1,-5.815351009E0,7.735348701E0
7.620960930E-1,-1.214699364E1,-5.501543522E0,8.161744118E0
7.646765620E-1,-1.283209991E1,-5.187735558E0,8.662398338E0
7.672072910E-1,-1.339264107E1,-4.797272682E0,9.146286011E0
7.697380200E-1,-1.381903648E1,-4.557724953E0,9.584657669E0
7.722687500E-1,-1.406097984E1,-4.349318027E0,9.869719505E0
7.747995310E-1,-1.421908188E1,-4.033114910E0,1.008770847E1
7.773302600E-1,-1.427417755E1,-3.939691544E0,1.032006931E1
7.798609890E-1,-1.431490135E1,-3.949273586E0,1.045182133E1
7.823917180E-1,-1.434604263E1,-3.889386654E0,1.044463444E1
7.849225000E-1,-1.437718391E1,-3.894177437E0,1.052608204E1
7.874532290E-1,-1.431969261E1,-3.958855152E0,1.044703102E1
7.899839580E-1,-1.422387314E1,-4.004369736E0,1.037516594E1
7.925146870E-1,-1.417356873E1,-4.100188732E0,1.023383236E1
7.950400000E-1,-1.401786041E1,-4.109770775E0,1.015238667E1
7.975707290E-1,-1.371603012E1,-4.023532867E0,9.960748672E0
8.001015100E-1,-1.335191727E1,-3.939691544E0,9.682872772E0
8.026322390E-1,-1.293271065E1,-3.879804611E0,9.472070694E0
8.051630200E-1,-1.285126305E1,-3.728888988E0,9.306782722E0
8.076937500E-1,-1.282012177E1,-3.659420490E0,8.976206779E0
8.102244790E-1,-1.290156746E1,-3.635465622E0,8.631258011E0
8.127552080E-1,-1.307643890E1,-3.659420490E0,8.283913612E0
8.152859890E-1,-1.332317352E1,-3.692956924E0,7.898241520E0
8.178167180E-1,-1.354834747E1,-3.680979729E0,7.620365620E0
8.203474480E-1,-1.370644951E1,-3.712121010E0,7.421541214E0
8.228781770E-1,-1.380705833E1,-3.700143337E0,7.155643463E0
8.254422390E-1,-1.380705833E1,-3.618697166E0,6.896931171E0
8.279729680E-1,-1.419752121E1,-3.530064583E0,6.717270374E0
8.305036980E-1,-1.520122719E1,-3.561205864E0,6.551982403E0
8.330344270E-1,-1.759670830E1,-3.479759693E0,6.839439869E0
8.355652080E-1,-1.877288818E1,-3.110855818E0,6.573541641E0
8.380958850E-1,-2.039702225E1,-2.135895967E0,5.771056175E0
8.406266660E-1,-2.136718941E1,-1.091467381E0,4.903893471E0
8.431573950E-1,-2.173609352E1,8.057236671E-3,4.479893684E0
8.456881770E-1,-2.143665886E1,8.895933628E-1,4.122967243E0
8.482189060E-1,-2.104140472E1,1.320779562E0,3.873837709E0
8.507496350E-1,-2.088090706E1,1.476485491E0,3.789995909E0
8.532803640E-1,-2.120429802E1,1.651355505E0,3.830718994E0
