"Time (s)","Acceleration x (m/s^2)","Acceleration y (m/s^2)","Acceleration z (m/s^2)"
0.000000000E0,3.701098442E0,-8.444271088E0,8.721838593E-1
8.691198000E-3,1.334596872E0,-8.952147484E0,1.159920812E0
1.119067700E-2,7.357929349E-1,-9.081359863E0,1.135992527E0
1.516328100E-2,2.518445849E-1,-9.052646637E0,1.112064362E0
1.766281200E-2,-2.321037948E-1,-9.062217712E0,1.068993568E0
2.016234400E-2,-7.208378315E-1,-9.181859016E0,9.732806087E-1
2.266182300E-2,-1.161715388E0,-9.349954605E0,8.386843204E-1
2.521760400E-2,-1.679163337E0,-9.455238342E0,7.573283911E-1
2.771713500E-2,-2.076970100E0,-9.536594391E0,7.190431952E-1
3.021666700E-2,-2.469393015E0,-9.704092026E0,6.137589812E-1
3.271614600E-2,-2.967698336E0,-9.795618057E0,5.563312769E-1
3.521567700E-2,-3.303291559E0,-9.915258408E0,4.701896608E-1
3.771520800E-2,-3.634099483E0,-1.003489971E1,3.930211067E-1
4.021473900E-2,-3.954737663E0,-1.008275604E1,3.786641955E-1
4.271427100E-2,-4.156332970E0,-1.015932655E1,4.121637046E-1
4.521380200E-2,-4.199403763E0,-1.029811001E1,3.547359705E-1
4.771328100E-2,-4.204189301E0,-1.038006496E1,1.968096644E-1
5.021281200E-2,-4.165904045E0,-1.042792130E1,5.324030295E-2
5.281036400E-2,-4.098307133E0,-1.052363396E1,-1.190429255E-1
5.530989600E-2,-4.045664787E0,-1.051884842E1,-2.584248483E-1
5.780942700E-2,-3.969094515E0,-1.045184898E1,-3.684946895E-1
6.030895800E-2,-3.758526087E0,-1.047577763E1,-5.503492355E-1
6.280843700E-2,-3.341576815E0,-1.040399265E1,-7.950153351E-1
6.530796900E-2,-2.766701221E0,-1.031785107E1,-1.077368379E0
6.780750000E-2,-2.603989124E0,-1.019761181E1,-1.255035520E0
7.030703100E-2,-2.368894339E0,-1.004447079E1,-1.336391449E0
7.280651000E-2,-2.062613010E0,-9.886545181E0,-1.326820135E0
7.530604200E-2,-1.832303882E0,-9.684949875E0,-1.274178028E0
7.780557300E-2,-1.559522152E0,-9.503094673E0,-1.259821177E0
8.030510400E-2,-1.223928809E0,-9.407382011E0,-1.221535921E0
8.280687500E-2,-8.835497499E-1,-9.282955170E0,-1.177866936E0
8.530640600E-2,-6.011967063E-1,-9.119645119E0,-1.168295622E0
8.780593700E-2,-3.517449200E-1,-8.933005333E0,-1.096511006E0
9.030546900E-2,-1.507478207E-1,-8.779864311E0,-1.005583763E0
9.280494800E-2,-7.178467698E-3,-8.688339233E0,-8.859425783E-1
9.530447900E-2,7.896314561E-2,-8.606983185E0,-7.328019142E-1
9.780401000E-2,1.752742529E-1,-8.535198212E0,-5.694918036E-1
1.003035420E-1,2.518445849E-1,-8.573483467E0,-3.972085714E-1
1.028030210E-1,2.901297510E-1,-8.592626572E0,-3.206382394E-1
1.053025520E-1,2.374876440E-1,-8.630910873E0,-1.627119333E-1
1.078020830E-1,2.327020019E-1,-8.741579056E0,-3.290131316E-2
1.103016140E-1,1.465603858E-1,-8.842078209E0,1.537388563E-1
1.128003120E-1,5.503492057E-2,-8.942576408E0,2.638086975E-1
1.152998440E-1,-3.110669367E-2,-9.095717430E0,3.020938635E-1
1.177993750E-1,-1.459621787E-1,-9.259027481E0,3.595215976E-1
1.202989060E-1,-2.847459018E-1,-9.378668785E0,4.558327198E-1
1.227983850E-1,-3.948157430E-1,-9.507881165E0,4.462614357E-1
1.252979170E-1,-6.107679605E-1,-9.608379364E0,4.462614357E-1
1.277974480E-1,-7.399803996E-1,-9.708877563E0,4.319044948E-1
1.302969790E-1,-9.750752449E-1,-9.795618057E0,4.319044948E-1
1.327964580E-1,-1.094716311E0,-9.881759644E0,3.595215976E-1
1.352959890E-1,-1.152144074E0,-9.929615974E0,3.690928817E-1
1.377955210E-1,-1.243071318E0,-9.920044899E0,2.877369225E-1
1.402950520E-1,-1.286142230E0,-9.900901794E0,2.781656384E-1
1.427937500E-1,-1.262213945E0,-9.881759644E0,2.973082066E-1
1.452932810E-1,-1.200000525E0,-9.862616539E0,2.781656384E-1
1.477928120E-1,-1.123430252E0,-9.790832520E0,2.542374134E-1
1.502923440E-1,-1.022931695E0,-9.761520386E0,1.968096644E-1
1.527918230E-1,-8.500502706E-1,-9.694520950E0,1.968096644E-1
1.552913540E-1,-7.495517135E-1,-9.632308006E0,1.920240223E-1
1.577908850E-1,-5.581258535E-1,-9.570094109E0,1.872383654E-1
1.602904170E-1,-3.708875179E-1,-9.541379929E0,1.872383654E-1
1.627898960E-1,-2.560320199E-1,-9.503094673E0,1.633101404E-1
1.652894270E-1,-8.853443712E-2,-9.536594391E0,1.824527234E-1
1.677889580E-1,5.982056633E-2,-9.579665184E0,1.872383654E-1
1.702884890E-1,1.896311939E-1,-9.546165466E0,1.441675574E-1
1.727871870E-1,3.092723191E-1,-9.546165466E0,1.776670814E-1
1.752867190E-1,4.336991012E-1,-9.555737495E0,1.824527234E-1
1.777862500E-1,5.198407173E-1,-9.570094109E0,2.159522474E-1
1.802857810E-1,5.964110494E-1,-9.589237213E0,2.781656384E-1
1.827852600E-1,6.879364848E-1,-9.651450157E0,3.499503136E-1
1.852847920E-1,7.645068169E-1,-9.661021233E0,4.366901219E-1
1.877843230E-1,7.980063558E-1,-9.670592308E0,5.276173949E-1
1.902838540E-1,8.745766878E-1,-9.718449593E0,6.137589812E-1
1.927833330E-1,8.123632669E-1,-9.829116821E0,7.573283911E-1
1.952828640E-1,8.075776696E-1,-9.862616539E0,8.291130662E-1
1.977823960E-1,8.123632669E-1,-9.920044899E0,8.386843204E-1
2.002819270E-1,8.123632669E-1,-1.001097202E1,8.434699774E-1
2.027806770E-1,7.836494446E-1,-1.008275604E1,8.386843204E-1
2.052802080E-1,7.932206988E-1,-1.017846966E1,8.003991842E-1
2.077797390E-1,7.980063558E-1,-1.024546814E1,7.764709592E-1
2.102792710E-1,7.597211599E-1,-1.033220863E1,6.951149702E-1
2.127787500E-1,7.166503668E-1,-1.042792130E1,6.137589812E-1
2.152782810E-1,7.262216806E-1,-1.049013424E1,5.276173949E-1
2.177778120E-1,6.879364848E-1,-1.058106136E1,3.786641955E-1
2.202773440E-1,6.346961856E-1,-1.064327526E1,2.685943544E-1
2.227768230E-1,5.820540786E-1,-1.063370419E1,1.680957973E-1
2.252763540E-1,5.916253924E-1,-1.073898792E1,2.931207791E-2
2.277758850E-1,6.346961856E-1,-1.080120182E1,-1.579262912E-1
2.302754170E-1,6.107679605E-1,-1.084008503E1,-2.727817893E-1
2.327741140E-1,5.916253924E-1,-1.087837029E1,-3.780659735E-1
2.352736460E-1,5.341976285E-1,-1.084487057E1,-4.833501875E-1
2.377731770E-1,5.246263742E-1,-1.085444164E1,-5.838487148E-1
2.402727080E-1,5.533402562E-1,-1.079641533E1,-6.705885530E-1
2.427721870E-1,4.911268353E-1,-1.074855900E1,-7.663014531E-1
2.452717190E-1,4.719842672E-1,-1.068634605E1,-8.572286963E-1
2.477712500E-1,4.384847581E-1,-1.059063339E1,-9.146564603E-1
2.502707810E-1,4.193421602E-1,-1.049013424E1,-1.091725349E0
2.527702600E-1,4.097708762E-1,-1.029811001E1,-1.144367456E0
2.552697920E-1,3.667000830E-1,-1.008754253E1,-1.197607756E0
2.577693230E-1,3.475574851E-1,-9.982257843E0,-1.192822099E0
2.602688540E-1,2.901297510E-1,-9.824331284E0,-1.226321578E0
2.627676040E-1,2.087737769E-1,-9.622735977E0,-1.245464206E0
2.652671350E-1,1.172483116E-1,-9.541379929E0,-1.264606714E0
2.677666670E-1,2.392822644E-3,-9.507881165E0,-1.278963685E0
2.702661980E-1,-1.028913707E-1,-9.464810371E0,-1.235892892E0
2.727656770E-1,-1.986042857E-1,-9.450452805E0,-1.211964726E0
2.752652080E-1,-3.613162339E-1,-9.493523598E0,-1.197607756E0
2.777647390E-1,-5.102694035E-1,-9.598808289E0,-1.072582722E0
2.802642710E-1,-7.399803996E-1,-9.718449593E0,-8.907282352E-1
2.827637500E-1,-1.089930773E0,-9.848259926E0,-6.705885530E-1
2.852632810E-1,-1.410568953E0,-1.006361389E1,-3.684946895E-1
2.877628120E-1,-1.765304923E0,-1.023111153E1,-3.768695518E-2
2.902623440E-1,-2.004587173E0,-1.042313576E1,2.398804724E-1
2.927610940E-1,-2.273181438E0,-1.065763187E1,5.132604837E-1
2.952606250E-1,-2.560918331E0,-1.089272690E1,8.243274093E-1
2.977601560E-1,-2.728415966E0,-1.109372425E1,1.040279627E0
3.002596870E-1,-2.895913601E0,-1.134736347E1,1.135992527E0
3.027591670E-1,-3.039483070E0,-1.161117172E1,1.131206870E0
3.052586980E-1,-3.083152056E0,-1.178824043E1,1.174277663E0
3.077582290E-1,-3.145365477E0,-1.192762280E1,1.092921734E0
3.102577600E-1,-3.131008387E0,-1.206640625E1,9.248259664E-1
3.127572390E-1,-3.053839922E0,-1.216211891E1,7.860422134E-1
3.152567710E-1,-2.852842808E0,-1.226740360E1,5.754738450E-1
3.177563020E-1,-2.670988321E0,-1.225304699E1,2.829512656E-1
3.202558330E-1,-2.478964329E0,-1.215733337E1,8.195417374E-2
3.227545310E-1,-2.234896421E0,-1.203290653E1,-1.094716340E-1
3.252540620E-1,-1.937588096E0,-1.196590805E1,-3.589234054E-1
3.277535940E-1,-1.660020709E0,-1.176431274E1,-5.359922647E-1
3.302531250E-1,-1.348355532E0,-1.158245754E1,-6.412764788E-1
3.327526040E-1,-1.037288666E0,-1.141496086E1,-6.556333899E-1
3.352521350E-1,-6.777670383E-1,-1.124686432E1,-6.753742099E-1
3.377516670E-1,-3.613162339E-1,-1.110808086E1,-6.269195080E-1
3.402511980E-1,-1.459621787E-1,-1.096451187E1,-5.455635786E-1
3.427506770E-1,8.374879509E-2,-1.089751244E1,-4.307080805E-1
3.452502080E-1,2.901297510E-1,-1.092144108E1,-2.727817893E-1
3.477497390E-1,4.815555513E-1,-1.101715374E1,-3.768695518E-2
3.502492710E-1,6.735795736E-1,-1.118943691E1,1.633101404E-1
3.527480210E-1,8.219345808E-1,-1.140538883E1,3.690928817E-1
3.552475520E-1,9.080761671E-1,-1.164945698E1,5.563312769E-1
3.577470830E-1,9.367900491E-1,-1.186959648E1,6.711867452E-1
3.602466140E-1,9.415757060E-1,-1.198505020E1,7.046862841E-1
3.627460940E-1,9.702895880E-1,-1.217169094E1,5.659025311E-1
3.652456250E-1,9.032905698E-1,-1.232004547E1,3.786641955E-1
3.677451560E-1,8.171489239E-1,-1.238704491E1,1.920240223E-1
3.702446870E-1,7.022934556E-1,-1.240618706E1,-5.682953820E-2
3.727441670E-1,5.724828243E-1,-1.231525993E1,-3.014956415E-1
3.752436980E-1,4.241278172E-1,-1.230090332E1,-5.264210105E-1
3.777432290E-1,2.614158690E-1,-1.222911835E1,-8.380861282E-1
3.802427600E-1,9.810572863E-2,-1.216690540E1,-1.115653515E0
3.827415100E-1,-7.417750359E-2,-1.211426258E1,-1.317248821E0
3.852410420E-1,-2.129612118E-1,-1.205683517E1,-1.446461320E0
3.877405730E-1,-3.900300860E-1,-1.195155048E1,-1.575673699E0
3.902401040E-1,-6.059823632E-1,-1.185523987E1,-1.637887120E0
3.927395830E-1,-8.021938205E-1,-1.174995518E1,-1.666600943E0
3.952391140E-1,-9.942178130E-1,-1.169252777E1,-1.671386600E0
3.977386460E-1,-1.257428288E0,-1.161117172E1,-1.628315806E0
4.002381770E-1,-1.448854089E0,-1.153938675E1,-1.566102386E0
4.027376560E-1,-1.640878081E0,-1.149631596E1,-1.489532113E0
4.052371870E-1,-1.803590059E0,-1.147717381E1,-1.427318692E0
4.077367190E-1,-1.971087694E0,-1.140538883E1,-1.379462242E0
4.102362500E-1,-2.139183521E0,-1.134736347E1,-1.369890928E0
4.127350000E-1,-2.254039049E0,-1.128993511E1,-1.341177106E0
4.152345310E-1,-2.402393818E0,-1.118465137E1,-1.307677627E0
4.177340620E-1,-2.474178553E0,-1.106022453E1,-1.322034478E0
4.202335940E-1,-2.647060156E0,-1.098843956E1,-1.345962763E0
4.227330730E-1,-2.785843849E0,-1.086879826E1,-1.456032634E0
4.252326040E-1,-2.886342287E0,-1.076291656E1,-1.523031592E0
4.277321350E-1,-3.025125980E0,-1.065763187E1,-1.575673699E0
4.302316670E-1,-3.092723370E0,-1.058106136E1,-1.642672777E0
4.327311460E-1,-3.231507063E0,-1.049491978E1,-1.704886079E0
4.352306770E-1,-3.332005501E0,-1.042313576E1,-1.767697692E0
4.377295830E-1,-3.379862070E0,-1.039920712E1,-1.772483349E0
4.402291140E-1,-3.446861029E0,-1.034656525E1,-1.868196249E0
4.427286460E-1,-3.475574970E0,-1.029811001E1,-1.758126378E0
4.452281770E-1,-3.494717360E0,-1.022632599E1,-1.704886079E0
4.477276560E-1,-3.461217880E0,-1.017368412E1,-1.652244091E0
4.502271870E-1,-3.427718401E0,-1.016411209E1,-1.556531072E0
4.527267190E-1,-3.355933666E0,-1.013539886E1,-1.427318692E0
4.552262500E-1,-3.202793121E0,-1.010189915E1,-1.345962763E0
4.577257290E-1,-3.078366280E0,-1.010189915E1,-1.231107235E0
4.602252600E-1,-2.881556749E0,-1.003968525E1,-1.163509965E0
4.627247920E-1,-2.651845694E0,-1.008754253E1,-1.029511929E0
4.652243230E-1,-2.383251429E0,-1.014496994E1,-9.242277741E-1
4.677230730E-1,-2.163111687E0,-1.018804073E1,-9.337990284E-1
4.702226040E-1,-1.856232166E0,-1.029811001E1,-9.385846853E-1
4.727221350E-1,-1.564307809E0,-1.042313576E1,-8.955138922E-1
4.752215100E-1,-1.214357495E0,-1.053320503E1,-9.098708034E-1
4.777210420E-1,-6.969096065E-1,-1.073420238E1,-8.380861282E-1
4.803766670E-1,-2.273181528E-1,-1.097886848E1,-7.758727670E-1
4.828761460E-1,2.901297510E-1,-1.116072273E1,-7.806583643E-1
4.853756770E-1,8.027920127E-1,-1.143888855E1,-6.610172391E-1
4.877188020E-1,1.377667665E0,-1.171167088E1,-4.450650215E-1
4.902183330E-1,1.861616015E0,-1.199462128E1,-2.344966233E-1
4.927178640E-1,2.297708035E0,-1.231525993E1,3.888336942E-2
4.952173440E-1,2.632703066E0,-1.268435287E1,3.403790295E-1
4.977168750E-1,2.877369165E0,-1.298166084E1,6.616154313E-1
5.002164060E-1,3.140579700E0,-1.319701481E1,1.045065284E0
5.027159370E-1,3.409173965E0,-1.352782249E1,1.500299811E0
5.052154170E-1,3.586242914E0,-1.381496143E1,1.792224169E0
5.077149480E-1,3.720241070E0,-1.415534019E1,2.166102648E0
5.102144790E-1,3.868596077E0,-1.453340626E1,2.515454769E0
5.127140100E-1,4.089334011E0,-1.486421394E1,2.745764017E0
5.152127600E-1,4.213760853E0,-1.517587948E1,2.874976397E0
5.177122920E-1,4.338187218E0,-1.554437447E1,2.994617462E0
5.202118230E-1,4.568496704E0,-1.587518215E1,3.105285645E0
5.227113540E-1,4.740779877E0,-1.620598984E1,3.047259569E0
5.252108330E-1,4.889134884E0,-1.648834229E1,2.874976397E0
5.277103640E-1,4.980660439E0,-1.671805382E1,2.717050076E0
5.302098960E-1,5.085944653E0,-1.694836235E1,2.505883455E0
5.327094270E-1,5.210371494E0,-1.723550224E1,2.304886341E0
5.352089060E-1,5.368297577E0,-1.748016739E1,2.132603168E0
5.377084370E-1,5.425725460E0,-1.757109451E1,1.950150490E0
5.402079690E-1,5.425725460E0,-1.760459518E1,1.672582984E0
5.427075000E-1,5.334797859E0,-1.748973846E1,1.529013634E0
5.452062500E-1,5.301298618E0,-1.737966919E1,1.475773335E0
5.477057810E-1,5.306084156E0,-1.723071671E1,1.317847013E0
5.502053120E-1,5.186442852E0,-1.699621964E1,1.188634634E0
5.527048440E-1,5.033302307E0,-1.667019653E1,1.030708313E0
5.552043230E-1,4.798207760E0,-1.630648804E1,7.812566161E-1
5.577038540E-1,4.601995945E0,-1.592782402E1,5.802595019E-1
5.602033850E-1,4.376472473E0,-1.559223080E1,3.882354796E-1
5.627029170E-1,4.275974274E0,-1.516630840E1,3.212364316E-1
5.652023960E-1,4.175475597E0,-1.478285789E1,2.111666054E-1
5.677019270E-1,4.017549038E0,-1.449990654E1,3.409772366E-2
5.702014580E-1,3.998406649E0,-1.416491222E1,-8.075776696E-2
5.727009890E-1,4.074976921E0,-1.388196087E1,-1.531406492E-1
5.751997390E-1,4.070191383E0,-1.367139244E1,-1.046859920E-1
5.776992710E-1,4.156332970E0,-1.340279770E1,-4.247260094E-2
5.801988020E-1,4.065405846E0,-1.317787266E1,-3.768695518E-2
5.826983330E-1,3.936193228E0,-1.321137238E1,1.489532143E-1
5.851978120E-1,3.979264021E0,-1.331187057E1,2.925225794E-1
5.876973440E-1,3.830310822E0,-1.345065403E1,2.829512656E-1
5.901968750E-1,3.524029493E0,-1.355175114E1,4.606183469E-1
5.926964060E-1,3.145365477E0,-1.361396408E1,9.391828775E-1
5.951959370E-1,2.364706993E0,-1.351286793E1,1.159920812E0
5.976954170E-1,1.497308731E0,-1.336929798E1,1.088136077E0
6.001949480E-1,7.214360237E-1,-1.326879978E1,8.003991842E-1
6.026944790E-1,2.805584669E-1,-1.315394402E1,4.462614357E-1
6.051932290E-1,-6.460621208E-2,-1.303908920E1,5.383851007E-3
6.076927600E-1,-2.991028428E-1,-1.285663605E1,-6.317051649E-1
6.101922920E-1,-4.959124923E-1,-1.259342575E1,-1.144367456E0
6.126918230E-1,-6.825526357E-1,-1.224826050E1,-1.546959877E0
6.151913020E-1,-8.931210637E-1,-1.195155048E1,-1.782054663E0
6.176908330E-1,-9.218349457E-1,-1.163031483E1,-1.868196249E0
6.201903640E-1,-9.607182741E-1,-1.129472065E1,-1.714457393E0
6.226898960E-1,-1.013360381E0,-1.105543900E1,-1.456032634E0
6.251893750E-1,-1.104287624E0,-1.085922718E1,-1.034297585E0
6.276889060E-1,-1.171286702E0,-1.063848972E1,-7.375875711E-1
6.301884370E-1,-1.295713425E0,-1.054756260E1,-5.982056856E-1
6.326879690E-1,-1.314856052E0,-1.041356373E1,-5.407779217E-1
6.351867190E-1,-1.300499082E0,-1.025025368E1,-4.019941986E-1
6.376862500E-1,-1.314856052E0,-1.002054310E1,-2.440679073E-1
6.401857810E-1,-1.420140266E0,-9.704092026E0,-7.118647546E-2
6.426853120E-1,-1.516451359E0,-9.431310654E0,4.845465720E-2
6.451847920E-1,-1.497308731E0,-9.196215630E0,2.159522474E-1
6.476843230E-1,-1.429711580E0,-9.076574326E0,2.781656384E-1
6.501838540E-1,-1.343569875E0,-8.985647202E0,2.685943544E-1
6.526833850E-1,-1.314856052E0,-8.775078773E0,2.925225794E-1
6.551828640E-1,-1.343569875E0,-8.463413239E0,2.733799815E-1
6.576823960E-1,-1.310070395E0,-8.118248940E0,3.116651475E-1
6.601819270E-1,-1.252642632E0,-7.835896015E0,3.738785386E-1
6.626814580E-1,-1.223928809E0,-7.586444378E0,4.121637046E-1
6.651802600E-1,-1.185643673E0,-7.423732281E0,4.223332107E-1
6.676797920E-1,-1.061216831E0,-7.299305439E0,4.121637046E-1
6.701793230E-1,-8.883354068E-1,-7.170093060E0,4.414757788E-1
6.726788540E-1,-6.586244106E-1,-7.001997471E0,5.036891699E-1
6.751783330E-1,-4.671986103E-1,-6.896713257E0,4.989035130E-1
6.776778640E-1,-3.756731451E-1,-6.753143787E0,5.898307562E-1
6.801773960E-1,-1.746760458E-1,-6.609574318E0,6.329016089E-1
6.826769270E-1,-7.178467698E-3,-6.465406895E0,6.807580590E-1
6.851764060E-1,5.503492057E-2,-6.340980053E0,8.003991842E-1
6.876759370E-1,8.374879509E-2,-6.178267956E0,8.626125455E-1
6.901754690E-1,2.231307179E-1,-6.072983742E0,8.817551732E-1
6.926750000E-1,3.284149170E-1,-5.995815277E0,9.493523836E-1
6.951737500E-1,5.102694035E-1,-5.866602898E0,1.049850941E0
6.976732810E-1,6.490531564E-1,-5.742176056E0,1.073779106E0
7.001728120E-1,7.453642488E-1,-5.632106304E0,1.140778184E0
7.026723440E-1,7.788637877E-1,-5.473581791E0,1.212562919E0
7.051718230E-1,8.362914920E-1,-5.397011280E0,1.202991605E0
7.076713540E-1,9.750752449E-1,-5.306084156E0,1.159920812E0
7.101708850E-1,1.185643673E0,-5.219942570E0,1.102493048E0
7.126704170E-1,1.420738459E0,-5.133800983E0,1.150349498E0
7.151698960E-1,1.492523074E0,-5.066802025E0,1.202991605E0
7.176694270E-1,1.325025558E0,-5.052444935E0,1.207777262E0
7.201689580E-1,1.267597795E0,-5.057230473E0,1.159920812E0
7.226684890E-1,1.272383451E0,-5.081159115E0,1.159920812E0
7.251672390E-1,1.420738459E0,-5.095515728E0,1.193420291E0
7.276667710E-1,1.492523074E0,-5.105087280E0,1.226919770E0
7.301663020E-1,1.526022673E0,-5.014159679E0,1.289133191E0
7.326658330E-1,1.655235052E0,-5.062016487E0,1.260419369E0
7.351653120E-1,1.741974831E0,-5.090730190E0,1.193420291E0
7.376648440E-1,1.785045743E0,-5.133800983E0,1.265205026E0
7.401643750E-1,1.832902193E0,-5.143372059E0,1.269990563E0
7.426639060E-1,1.852044702E0,-5.148158073E0,1.222134113E0
7.451633850E-1,1.914258122E0,-5.157729149E0,1.198205948E0
7.476629170E-1,1.995614052E0,-5.176871777E0,1.121635556E0
7.501624480E-1,2.067398787E0,-5.282155991E0,1.126421213E0
7.526619790E-1,2.096112728E0,-5.363512039E0,1.107278705E0
7.551607290E-1,2.210968018E0,-5.435296535E0,1.107278705E0
7.576602600E-1,2.283350945E0,-5.464010715E0,1.088136077E0
7.601597920E-1,2.316850424E0,-5.574678421E0,1.140778184E0
7.626593230E-1,2.374278307E0,-5.641677380E0,1.135992527E0
7.651588020E-1,2.422134638E0,-5.699105263E0,1.140778184E0
7.676583330E-1,2.455634356E0,-5.746961594E0,1.198205948E0
7.701578640E-1,2.532204628E0,-5.775675774E0,1.193420291E0
7.726573960E-1,2.584846735E0,-5.813961029E0,1.212562919E0
7.751568750E-1,2.690130949E0,-5.799603939E0,1.241276741E0
7.776564060E-1,2.728415966E0,-5.809175014E0,1.193420291E0
7.801559370E-1,2.819941521E0,-5.818746567E0,1.164706469E0
7.826554690E-1,2.843869686E0,-5.813961029E0,1.159920812E0
7.851542710E-1,2.824727058E0,-5.746961594E0,1.078564763E0
7.876538020E-1,2.901297569E0,-5.742176056E0,1.078564763E0
7.901533330E-1,2.930011272E0,-5.689534187E0,1.083350420E0
7.926528640E-1,2.891726255E0,-5.646463394E0,1.102493048E0
7.951523440E-1,2.867797852E0,-5.598606586E0,1.083350420E0
7.976518750E-1,2.834298372E0,-5.565107346E0,1.064207911E0
8.001514060E-1,2.781058073E0,-5.536393166E0,1.083350420E0
8.026509370E-1,2.733201742E0,-5.473581791E0,1.064207911E0
8.051504170E-1,2.694916487E0,-5.440082073E0,1.025922656E0
8.076499480E-1,2.603989124E0,-5.468796253E0,1.006780148E0
8.101494790E-1,2.565704107E0,-5.473581791E0,9.972088337E-1
8.126490100E-1,2.546561480E0,-5.459224701E0,9.589236975E-1
8.151477600E-1,2.517847538E0,-5.440082073E0,9.008977413E-1
8.176472920E-1,2.479562521E0,-5.478367329E0,8.386843204E-1
8.201468230E-1,2.441277266E0,-5.555535793E0,7.094719410E-1
8.226463540E-1,2.369492531E0,-5.608178139E0,6.089733839E-1
8.251458330E-1,2.302493572E0,-5.689534187E0,5.324030519E-1
8.276453640E-1,2.230110645E0,-5.794818401E0,3.882354796E-1
8.301448960E-1,2.187039852E0,-5.871388435E0,2.542374134E-1
8.326444270E-1,2.158325911E0,-5.900102615E0,9.631111473E-2
8.351439060E-1,2.057827473E0,-5.986244202E0,-4.247260094E-2
