"Time (s)","X (rad/s)","Y (rad/s)","Z (rad/s)"
1.242300007E-2,-2.740450203E-1,8.764184266E-2,8.465782553E-2
2.236200008E-2,-2.646650970E-1,8.212004602E-2,8.242502809E-2
3.230000008E-2,-2.319614589E-1,5.241168663E-2,6.598667055E-2
4.223900009E-2,-1.970868409E-1,-1.203340478E-3,4.038383812E-2
5.217800010E-2,-1.481403261E-1,-6.804709136E-2,1.823928207E-3
6.211600010E-2,-7.087697089E-2,-1.317395121E-1,-4.440934956E-2
7.205500011E-2,4.004315287E-2,-1.701140553E-1,-7.454407960E-2
8.199300012E-2,1.639003903E-1,-1.796628237E-1,-1.009181663E-1
9.193200013E-2,2.773118913E-1,-1.570211649E-1,-1.070985645E-1
1.018700001E-1,3.659908772E-1,-1.270568669E-1,-1.141072065E-1
1.118090001E-1,4.165134430E-1,-1.033385023E-1,-1.208380759E-1
1.217470001E-1,4.293983579E-1,-9.687341005E-2,-1.240948513E-1
1.316860002E-1,4.110260010E-1,-8.296424896E-2,-1.109745279E-1
1.416249999E-1,3.587521613E-1,-5.102096125E-2,-8.528221399E-2
1.515629999E-1,2.733576298E-1,-4.355457611E-3,-5.719997734E-2
1.615019999E-1,1.770787686E-1,5.325617269E-2,-4.192887992E-2
1.714399999E-1,8.880031109E-2,1.073721349E-1,-4.812125862E-2
1.813790000E-1,1.817247644E-2,1.634918749E-1,-6.778444350E-2
1.913170000E-1,-2.884456515E-2,2.070659846E-1,-8.555465192E-2
2.012560000E-1,-5.456724018E-2,2.286077589E-1,-1.027911678E-1
2.111940000E-1,-5.869753659E-2,2.223346829E-1,-1.278469712E-1
2.211330000E-1,-5.097383633E-2,1.915184408E-1,-1.684079915E-1
2.310720000E-1,-4.072945565E-2,1.443352252E-1,-2.076496631E-1
2.410100000E-1,-2.037970722E-2,9.812670201E-2,-2.223769426E-1
2.509490000E-1,7.415969856E-3,5.487351120E-2,-2.255815268E-1
2.608870000E-1,4.660544917E-2,5.778935272E-3,-2.288164645E-1
2.708260000E-1,9.089142084E-2,-3.911290318E-2,-2.229609787E-1
2.807640000E-1,1.130449325E-1,-6.444596499E-2,-2.168745846E-1
2.907030000E-1,1.007054374E-1,-7.259443402E-2,-1.993059814E-1
3.006410000E-1,7.243305445E-2,-5.945359543E-2,-1.707659513E-1
3.105800000E-1,5.518189445E-2,-1.607310027E-2,-1.368825436E-1
3.205180001E-1,5.948289856E-2,3.317886963E-2,-9.971468151E-2
3.304570001E-1,8.349822462E-2,6.674827635E-2,-5.895233899E-2
3.403960001E-1,1.127248183E-1,6.712564826E-2,-2.214372158E-2
3.503340001E-1,1.402861327E-1,3.819919378E-2,2.914226381E-3
3.602730001E-1,1.549556255E-1,-6.413015537E-3,1.972622983E-2
3.702110001E-1,1.576443613E-1,-5.603090301E-2,1.266752090E-2
3.801500001E-1,1.464545578E-1,-1.214160398E-1,-8.116853423E-3
3.900880001E-1,1.136310920E-1,-1.927203089E-1,-3.305762261E-2
4.000270001E-1,9.311223775E-2,-2.513884008E-1,-5.285023898E-2
4.099650001E-1,1.146883667E-1,-2.654142082E-1,-6.043518335E-2
4.199040001E-1,1.794351339E-1,-2.372515500E-1,-5.351070315E-2
4.298430001E-1,2.801060677E-1,-1.795831919E-1,-4.817932099E-2
4.397810001E-1,4.098355770E-1,-6.563266367E-2,-5.466038734E-2
4.497200001E-1,5.305566788E-1,9.894562513E-2,-7.233712077E-2
4.596580002E-1,6.015917063E-1,2.555970252E-1,-9.177713096E-2
4.695970002E-1,5.983868241E-1,3.202492595E-1,-1.040415168E-1
4.795349999E-1,5.431272984E-1,2.946962416E-1,-1.042708158E-1
4.894739999E-1,4.868382215E-1,2.401360422E-1,-1.156624928E-1
4.994119999E-1,4.648602009E-1,2.136168182E-1,-1.420147270E-1
5.093510000E-1,4.737242758E-1,2.071101815E-1,-1.670769304E-1
5.192890000E-1,5.003737211E-1,1.877593994E-1,-1.834050417E-1
5.292280000E-1,5.189213157E-1,1.311810613E-1,-1.834556460E-1
5.391670000E-1,5.144048333E-1,6.558367610E-2,-1.630752683E-1
5.491050000E-1,4.874416888E-1,2.333981916E-2,-1.292952001E-1
5.590440000E-1,4.540621638E-1,2.182741091E-2,-8.940745145E-2
5.689820000E-1,4.299155474E-1,5.152884871E-2,-4.817159474E-2
5.789210000E-1,4.232461751E-1,1.082725525E-1,2.100897022E-3
5.888590000E-1,4.280084670E-1,1.646340936E-1,4.258360714E-2
5.987980000E-1,4.383396506E-1,2.205599546E-1,7.246959955E-2
6.087360000E-1,4.621629715E-1,2.644405961E-1,9.713526815E-2
6.186750000E-1,4.842301905E-1,3.020028770E-1,1.180000678E-1
6.286140000E-1,4.884757996E-1,3.364673853E-1,1.333806217E-1
6.385520000E-1,4.543343186E-1,3.725287020E-1,1.501899660E-1
6.484910001E-1,3.894826174E-1,4.189438820E-1,1.552632898E-1
6.584290001E-1,3.235467672E-1,4.907576144E-1,1.562180370E-1
6.683680001E-1,2.810360491E-1,5.912356973E-1,1.593810767E-1
6.783060001E-1,2.652671933E-1,7.144567370E-1,1.629891247E-1
6.882450001E-1,2.633148432E-1,8.420956135E-1,1.723852903E-1
6.981830001E-1,2.599611282E-1,9.357403517E-1,1.868995130E-1
7.081220001E-1,2.616503537E-1,9.882541895E-1,1.985572278E-1
7.180600001E-1,2.854694128E-1,1.040091634E0,1.998344809E-1
7.279990001E-1,3.487605155E-1,1.118841052E0,2.070660293E-1
7.379380001E-1,4.512650371E-1,1.221473098E0,2.242383659E-1
7.478760001E-1,5.589678288E-1,1.293760896E0,2.568069696E-1
7.578150001E-1,6.303559542E-1,1.295338035E0,2.835283279E-1
7.677533333E-1,6.196244955E-1,1.183046579E0,2.956632674E-1
7.776923333E-1,5.219916701E-1,9.672860503E-1,2.826785147E-1
7.876303333E-1,3.610541821E-1,6.869499683E-1,2.291894406E-1
7.975693333E-1,1.783879846E-1,4.253929853E-1,1.435637623E-1
8.075073333E-1,7.076149806E-3,2.202720642E-1,5.758199841E-2
8.174463334E-1,-1.675294787E-1,6.250160187E-2,8.148935623E-3
8.273853334E-1,-3.817640245E-1,-5.962217227E-2,-2.255810983E-2
8.373233334E-1,-6.592922807E-1,-1.646063775E-1,-8.356980234E-2
8.472623334E-1,-1.009287834E0,-2.800184488E-1,-1.838820130E-1
8.572003334E-1,-1.410563350E0,-4.516440034E-1,-2.797273099E-1
8.671393334E-1,-1.831199169E0,-6.862759590E-1,-3.498523533E-1
8.770773334E-1,-2.254235983E0,-9.464486837E-1,-3.891787231E-1
8.870163334E-1,-2.633330584E0,-1.231288910E0,-3.862780035E-1
8.969543334E-1,-2.891546011E0,-1.535904408E0,-3.523629010E-1
9.068933334E-1,-3.062881947E0,-1.697241902E0,-3.187730014E-1
9.168313334E-1,-3.121834040E0,-1.639968276E0,-2.564345002E-1
9.267703334E-1,-3.047111988E0,-1.470163226E0,-1.648308337E-1
9.367093334E-1,-2.886337519E0,-1.155033588E0,-6.392686069E-2
9.466473334E-1,-2.713491440E0,-6.894344687E-1,4.109969735E-2
9.565863335E-1,-2.589313745E0,-1.432619393E-1,1.054925323E-1
9.665243335E-1,-2.554565430E0,3.609479666E-1,1.023278981E-1
9.764633335E-1,-2.620023251E0,7.938429117E-1,3.051389568E-2
9.864013335E-1,-2.747595549E0,1.203703761E0,-7.266921550E-2
9.963403335E-1,-2.896817207E0,1.546211004E0,-2.066480517E-1
1.006278333E0,-3.009326458E0,1.835259318E0,-3.416447341E-1
1.016217333E0,-3.069833279E0,2.023852587E0,-4.534370601E-1
1.026156333E0,-3.008756876E0,2.037562370E0,-5.495026112E-1
1.036094333E0,-2.796579838E0,1.800737500E0,-6.026574373E-1
1.046033333E0,-2.446168900E0,1.228078604E0,-5.878630280E-1
1.055971333E0,-2.031384230E0,5.563363433E-1,-5.445491076E-1
1.065910333E0,-1.621498466E0,-3.468220308E-2,-5.891144872E-1
1.075848333E0,-1.292476416E0,-4.649880528E-1,-6.889156103E-1
1.085787333E0,-1.106122971E0,-6.589538455E-1,-8.175223470E-1
1.095725333E0,-1.021556973E0,-6.070466638E-1,-9.763029218E-1
1.105664333E0,-9.823928475E-1,-4.933355153E-1,-1.129831553E0
1.115603333E0,-9.383438826E-1,-4.333084226E-1,-1.244608521E0
1.125541333E0,-8.555739522E-1,-4.629448652E-1,-1.314301014E0
1.135480333E0,-7.196794748E-1,-5.867970586E-1,-1.373383522E0
1.145418333E0,-5.258926749E-1,-7.938543558E-1,-1.431154132E0
1.155357333E0,-2.944946289E-1,-1.043566942E0,-1.468284488E0
1.165295333E0,-4.616257176E-2,-1.298936963E0,-1.457843542E0
1.175234333E0,2.314131111E-1,-1.484278560E0,-1.382833719E0
1.185172333E0,5.279470086E-1,-1.532386184E0,-1.232515812E0
1.195111333E0,8.371469378E-1,-1.416758895E0,-1.032434464E0
1.205050333E0,1.118263125E0,-1.192883492E0,-8.367959261E-1
1.214988333E0,1.346764684E0,-9.424012303E-1,-6.741518378E-1
1.224927333E0,1.533021450E0,-6.973699331E-1,-5.111994147E-1
1.234865333E0,1.681158185E0,-4.510807395E-1,-3.418956101E-1
1.244804333E0,1.837841034E0,-1.970213056E-1,-1.815070063E-1
1.254742333E0,1.982417345E0,4.361686110E-2,-5.549954623E-2
1.264681333E0,2.025801897E0,1.656373143E-1,1.812540367E-2
1.274619333E0,1.912663341E0,1.523241699E-1,7.679137588E-2
1.284558333E0,1.608621955E0,7.262374461E-2,1.554342657E-1
1.294497333E0,1.143862963E0,4.258994758E-2,2.054494917E-1
1.304435333E0,5.945596099E-1,1.623816043E-1,1.515148878E-1
1.314374333E0,8.474750817E-2,4.166008234E-1,-6.163920462E-2
1.324312333E0,-2.470844835E-1,6.331392527E-1,-3.744351864E-1
1.334251333E0,-3.489429653E-1,6.132560968E-1,-6.180302501E-1
1.344189333E0,-3.014231026E-1,3.054426312E-1,-7.438108325E-1
1.354128333E0,-1.968372911E-1,-1.268222481E-1,-7.852283120E-1
1.364066333E0,-6.767984480E-2,-4.720773697E-1,-7.477642894E-1
1.374005333E0,1.231910437E-1,-5.310877562E-1,-6.123747826E-1
1.383944333E0,3.588810563E-1,-2.960469723E-1,-4.916994870E-1
1.393882333E0,5.631175637E-1,3.339591622E-2,-4.623959363E-1
1.403821333E0,6.684564948E-1,2.911193371E-1,-4.484359026E-1
1.413759333E0,6.823475361E-1,4.665803611E-1,-3.474810719E-1
1.423698333E0,6.419249773E-1,5.729259849E-1,-2.057516277E-1
1.433636333E0,5.623952746E-1,5.826236010E-1,-5.093994737E-2
1.443575333E0,5.684537292E-1,4.929792285E-1,1.314269304E-1
1.453513333E0,6.723018289E-1,3.785005808E-1,2.354556024E-1
1.463452333E0,8.724101186E-1,4.250126779E-1,1.114441603E-1
1.473391333E0,9.474750757E-1,5.888851881E-1,-6.389942765E-2
1.483329333E0,8.644866943E-1,7.165358663E-1,3.483460844E-2
1.493268333E0,7.183787823E-1,7.371343374E-1,3.527012765E-1
1.503206333E0,5.907635689E-1,7.286838889E-1,6.345028281E-1
1.513145333E0,5.082311034E-1,6.989432573E-1,8.313102126E-1
1.523083333E0,4.583109617E-1,5.923968554E-1,9.551756978E-1
1.533022333E0,4.060714543E-1,3.566698432E-1,1.001230478E0
1.542961333E0,3.649826050E-1,2.573666349E-2,9.819065928E-1
1.552899333E0,3.868205249E-1,-2.601901591E-1,9.328464270E-1
1.562838333E0,4.712214470E-1,-3.820068836E-1,8.572227359E-1
1.572776333E0,6.209097505E-1,-3.938827217E-1,7.471196651E-1
1.582715333E0,8.527022004E-1,-3.645929992E-1,6.419591904E-1
1.592653333E0,1.191786289E0,-3.109244406E-1,5.602922440E-1
1.602592333E0,1.627778530E0,-2.077296078E-1,4.919955134E-1
1.612530333E0,2.095016003E0,-5.788770504E-3,4.322685301E-1
1.622469333E0,2.481641769E0,2.963207662E-1,3.636015952E-1
1.632408333E0,2.659617901E0,5.904271603E-1,2.802230716E-1
1.642346333E0,2.562471151E0,7.996723056E-1,2.028550506E-1
1.652285333E0,2.223200321E0,9.101564288E-1,1.743168831E-1
1.662223333E0,1.760765672E0,9.537694454E-1,1.924050599E-1
1.672162333E0,1.302730203E0,9.561907649E-1,2.083475441E-1
1.682100333E0,9.532754421E-1,9.498543143E-1,2.293963730E-1
1.692039333E0,7.477651238E-1,9.229755998E-1,2.505352199E-1
1.701977333E0,6.775365472E-1,8.545986414E-1,2.722972333E-1
1.711916333E0,7.086917758E-1,7.345327139E-1,2.690005004E-1
1.721855333E0,7.976405621E-1,5.761886239E-1,2.501786053E-1
1.731793333E0,9.117774963E-1,4.382821620E-1,2.212945074E-1
1.741732333E0,1.028468013E0,3.319016695E-1,2.036270946E-1
1.751670333E0,1.122575045E0,2.823514044E-1,2.018166780E-1
1.761608750E0,1.162472129E0,3.030782640E-1,2.113084495E-1
1.771546750E0,1.133152843E0,3.871127069E-1,2.287263274E-1
1.781485750E0,1.053492904E0,5.272372961E-1,2.505378723E-1
1.791424750E0,9.652814865E-1,6.836218238E-1,2.768379152E-1
1.801362750E0,8.985815644E-1,8.103856444E-1,2.941876054E-1
1.811301750E0,8.677919507E-1,8.951649666E-1,2.862111926E-1
1.821239750E0,8.445396423E-1,9.385252595E-1,2.670915425E-1
1.831178750E0,7.847253084E-1,9.351257086E-1,2.639008164E-1
1.841116750E0,6.584991813E-1,8.548026681E-1,2.959402502E-1
1.851055750E0,4.604532123E-1,6.833283901E-1,3.283911347E-1
1.860993750E0,2.407126129E-1,4.613557756E-1,3.324545920E-1
1.870932750E0,5.900060013E-2,3.474060595E-1,2.807519734E-1
1.880871750E0,-6.132048368E-2,3.996215761E-1,1.817660034E-1
1.890809750E0,-1.300998181E-1,5.615997910E-1,7.755916566E-2
1.900748750E0,-2.079789042E-1,6.362692714E-1,-1.020743418E-2
1.910686750E0,-2.925326824E-1,6.352263689E-1,-1.132619157E-1
1.920625750E0,-3.569824994E-1,6.137189269E-1,-2.279056609E-1
1.930563750E0,-4.505097866E-1,4.933320880E-1,-3.599161506E-1
1.940502750E0,-6.117503643E-1,2.640432417E-1,-4.669105113E-1
1.950441750E0,-8.742778301E-1,-8.137115091E-2,-5.337278843E-1
1.960379750E0,-1.227019310E0,-4.847569466E-1,-5.645236373E-1
1.970318750E0,-1.614784598E0,-8.335011005E-1,-5.728849173E-1
1.980256750E0,-2.016153574E0,-1.110626698E0,-5.453739166E-1
1.990195750E0,-2.433929920E0,-1.438950539E0,-4.605828524E-1
2.000133750E0,-2.783105135E0,-1.883609653E0,-3.411169052E-1
2.010072750E0,-3.002456903E0,-2.285181046E0,-2.239237130E-1
2.020011750E0,-3.050655842E0,-2.513596296E0,-1.653802395E-1
2.029949750E0,-2.963757515E0,-2.525094271E0,-1.619290411E-1
2.039888750E0,-2.809981108E0,-2.249593973E0,-1.899566799E-1
2.049826750E0,-2.636377096E0,-1.712272286E0,-2.015970945E-1
2.059765750E0,-2.475410938E0,-1.031797409E0,-1.703616828E-1
2.069703750E0,-2.366273403E0,-3.953538239E-1,-1.534135938E-1
2.079642750E0,-2.376136780E0,1.474391371E-1,-1.749870628E-1
2.089581750E0,-2.589206457E0,6.586749554E-1,-2.258382589E-1
2.099519750E0,-2.981512547E0,1.206778646E0,-3.180283606E-1
2.109458750E0,-3.451961756E0,1.755940199E0,-4.380602241E-1
2.119396750E0,-3.863625765E0,2.245456457E0,-5.422034264E-1
2.129335750E0,-4.075597763E0,2.639189243E0,-6.060750484E-1
2.139273750E0,-3.999279976E0,2.877039909E0,-6.275539994E-1
2.149212750E0,-3.594257116E0,2.783003330E0,-5.867804885E-1
2.159150750E0,-2.990094423E0,2.406700611E0,-5.634016395E-1
2.169089750E0,-2.332118988E0,1.705807090E0,-5.098441243E-1
2.179028750E0,-1.726947904E0,8.260615468E-1,-5.698510408E-1
2.188966750E0,-1.299020767E0,2.927222289E-3,-7.139405608E-1
2.198905750E0,-1.035238743E0,-6.669217348E-1,-9.090019464E-1
2.208843750E0,-8.685512543E-1,-1.134366393E0,-1.103829026E0
2.218782750E0,-7.532174587E-1,-1.429482698E0,-1.245591760E0
2.228720750E0,-6.633565426E-1,-1.631689072E0,-1.324975014E0
2.238659750E0,-5.469194055E-1,-1.781619191E0,-1.344702840E0
2.248598750E0,-3.868293464E-1,-1.896825671E0,-1.290723205E0
2.258536750E0,-1.607647836E-1,-1.978032112E0,-1.166924834E0
2.268475750E0,1.249798834E-1,-2.012130976E0,-1.000768423E0
2.278413750E0,4.895916581E-1,-1.946636558E0,-8.427549601E-1
2.288352750E0,8.918600082E-1,-1.771340370E0,-7.138971686E-1
2.298290750E0,1.297707915E0,-1.503521204E0,-6.218430996E-1
2.308229750E0,1.688168168E0,-1.197165251E0,-5.484482646E-1
2.318168750E0,2.074499369E0,-8.934366107E-1,-4.798724055E-1
2.328106750E0,2.467080593E0,-6.013549566E-1,-4.022116959E-1
2.338045750E0,2.824780941E0,-2.678190470E-1,-2.723756731E-1
2.347983750E0,3.050737619E0,2.584372461E-2,-9.987819940E-2
2.357922750E0,2.987631798E0,1.724856347E-1,7.110446692E-2
2.367860750E0,2.547375202E0,1.015379503E-1,2.409323901E-1
2.377799750E0,1.808804512E0,-6.247974560E-2,3.499209285E-1
2.387738750E0,9.082640409E-1,6.119020749E-3,3.449165821E-1
2.397676750E0,1.349888444E-1,5.246462822E-1,1.124702767E-1
2.407615750E0,-3.023679852E-1,1.201718330E0,-2.604769170E-1
2.417553750E0,-4.227527380E-1,1.491286755E0,-5.309233069E-1
2.427492750E0,-3.805778623E-1,1.134379268E0,-6.533885002E-1
2.437430750E0,-2.862968743E-1,3.457783163E-1,-7.085830569E-1
2.447369750E0,-1.193920374E-1,-4.387860000E-1,-7.045425177E-1
2.457308750E0,8.163694292E-2,-9.008061290E-1,-6.421545148E-1
2.467246750E0,2.676573992E-1,-1.004305005E0,-4.823414087E-1
2.477185750E0,4.514823556E-1,-7.243248224E-1,-2.900129855E-1
2.487123750E0,6.083974242E-1,-2.767925560E-1,-1.803253591E-1
2.497062750E0,6.750124097E-1,1.168902740E-1,-2.000396848E-1
2.507000750E0,6.658141017E-1,3.337482810E-1,-2.527572215E-1
2.516939750E0,6.395734549E-1,3.840508759E-1,-2.135597467E-1
2.526878750E0,5.176568627E-1,3.033363223E-1,-9.258912504E-2
2.536816750E0,3.990641534E-1,2.438740581E-1,7.102030516E-2
2.546755750E0,3.351184726E-1,3.583215475E-1,1.644551903E-1
2.556693750E0,2.567749321E-1,8.374226093E-1,3.305375203E-2
2.566632750E0,1.821482182E-2,1.528446317E0,-3.663879037E-1
2.576570750E0,-9.483822435E-2,2.038367987E0,-5.734090209E-1
2.586509750E0,8.627510071E-2,2.170520544E0,-3.433337212E-1
2.596448750E0,3.954939246E-1,1.972511649E0,1.628519744E-1
2.606386750E0,5.566705465E-1,1.525161386E0,6.762705445E-1
2.616325750E0,5.665010810E-1,1.059565663E0,1.088667631E0
2.626263750E0,5.334914923E-1,6.590089202E-1,1.373913527E0
2.636202750E0,5.176717639E-1,2.958589792E-1,1.519919991E0
2.646141750E0,5.413904190E-1,-5.021855235E-2,1.548690677E0
2.656079750E0,6.723665595E-1,-3.404509127E-1,1.496173620E0
2.666018750E0,9.268677831E-1,-5.827162862E-1,1.407175303E0
2.675956750E0,1.258445740E0,-7.743152976E-1,1.279273272E0
2.685895750E0,1.682216287E0,-8.233880401E-1,1.104951501E0
2.695833750E0,2.161638021E0,-7.044222355E-1,9.042043686E-1
2.705772750E0,2.532206535E0,-3.725694418E-1,7.147960663E-1
2.715711750E0,2.698947430E0,8.956491202E-2,5.911335349E-1
2.725649750E0,2.617961645E0,6.216098666E-1,5.433974266E-1
2.735588750E0,2.312146187E0,1.059072495E0,5.485780835E-1
2.745526750E0,1.888333201E0,1.332635641E0,5.776789784E-1
2.755465750E0,1.463532925E0,1.410541296E0,5.901548266E-1
2.765403583E0,1.132745624E0,1.303968310E0,5.529661775E-1
2.775342583E0,9.653211832E-1,1.099709392E0,4.847093523E-1
2.785281583E0,9.633035660E-1,8.913609385E-1,4.188278317E-1
2.795219583E0,1.047237992E0,7.549676895E-1,3.924183249E-1
2.805158583E0,1.132274747E0,6.335541606E-1,3.970071971E-1
2.815096583E0,1.174426556E0,4.262529314E-1,3.905541003E-1
2.825035583E0,1.181059361E0,1.490018815E-1,3.679726422E-1
2.834973583E0,1.166717768E0,-1.111298427E-1,3.194468915E-1
2.844912583E0,1.164877176E0,-2.185979784E-1,2.715789676E-1
2.854851583E0,1.175649762E0,-9.941113740E-2,2.520015538E-1
2.864789583E0,1.167633057E0,1.990796924E-1,2.656816840E-1
2.874728583E0,1.089123368E0,5.617145896E-1,2.880927026E-1
2.884666583E0,9.260347486E-1,8.756088614E-1,3.199976385E-1
2.894605583E0,7.195209861E-1,1.091350794E0,3.508495688E-1
2.904544583E0,5.235685110E-1,1.214589596E0,3.818964362E-1
2.914482583E0,3.906685412E-1,1.262900233E0,3.924428225E-1
2.924421583E0,3.569547832E-1,1.222635031E0,3.864003718E-1
2.934359583E0,4.025779366E-1,1.081658006E0,3.706315160E-1
2.944298583E0,4.775850475E-1,8.179146647E-1,3.799347579E-1
2.954236583E0,5.357586145E-1,4.727764726E-1,4.155817032E-1
2.964175583E0,5.204491615E-1,1.667033732E-1,4.568955898E-1
2.974114583E0,4.364293814E-1,-1.284588221E-2,4.545914233E-1
2.984052583E0,3.121010363E-1,-7.680729032E-2,3.671166897E-1
2.993991583E0,1.581436992E-1,-1.199420262E-2,1.876888722E-1
3.003929583E0,-2.077279240E-2,1.008106396E-1,-6.215345860E-2
3.013868583E0,-2.764383852E-1,1.798767000E-1,-3.279811442E-1
3.023807583E0,-6.580699086E-1,1.815933734E-1,-5.251775384E-1
3.033745583E0,-1.173563242E0,-4.583818465E-2,-6.470028162E-1
3.043684583E0,-1.660583854E0,-5.945668221E-1,-7.525260448E-1
3.053622583E0,-2.025838375E0,-1.300582767E0,-8.085461259E-1
3.063561583E0,-2.267891884E0,-1.968217850E0,-7.708594799E-1
3.073499583E0,-2.421797991E0,-2.499457836E0,-6.279614568E-1
3.083438583E0,-2.520627499E0,-2.929770708E0,-3.861967623E-1
3.093376583E0,-2.612535954E0,-3.269419670E0,-1.564527899E-1
3.103315583E0,-2.697290182E0,-3.405089140E0,-7.726700045E-3
3.113254583E0,-2.729612589E0,-3.247370243E0,7.572877407E-2
3.123192583E0,-2.744058371E0,-2.712157965E0,1.295012087E-1
3.133131583E0,-2.742756844E0,-1.900830746E0,1.535210460E-1
3.143069583E0,-2.762554884E0,-1.021416903E0,1.113461554E-1
3.153008583E0,-2.808483124E0,-2.600588500E-1,2.738601342E-2
3.162947583E0,-2.904543638E0,3.855459690E-1,-3.202378005E-2
3.172885583E0,-3.081919909E0,9.871140718E-1,-9.078909457E-2
3.182824583E0,-3.328881502E0,1.534119725E0,-1.742288619E-1
3.192762583E0,-3.592939377E0,2.055933475E0,-3.021111786E-1
3.202701583E0,-3.784453154E0,2.525766134E0,-4.603404999E-1
3.212640583E0,-3.840983391E0,2.866904497E0,-5.629574060E-1
3.222578583E0,-3.695871592E0,3.100455046E0,-5.618972182E-1
3.232517583E0,-3.335130215E0,3.140440226E0,-4.825115800E-1
3.242455583E0,-2.815586329E0,2.910648584E0,-4.274525940E-1
3.252394583E0,-2.209536314E0,2.378248215E0,-4.486827850E-1
3.262332583E0,-1.585188150E0,1.286291003E0,-4.897306263E-1
3.272271583E0,-1.053375840E0,1.329810917E-1,-5.726574659E-1
3.282210583E0,-6.764600873E-1,-6.903282404E-1,-6.529964805E-1
3.292148583E0,-4.777787030E-1,-1.228787422E0,-7.488500476E-1
3.302087583E0,-3.909689784E-1,-1.553219318E0,-8.942767978E-1
3.312025583E0,-3.254003525E-1,-1.675622106E0,-1.070706964E0
