"Time (s)","X (m/s^2)","Y (m/s^2)","Z (m/s^2)"
0.000000000E0,-5.907615051E0,-7.532785492E0,8.505313110E-1
1.001200000E-2,-6.276747437E0,-6.927593994E0,3.459306335E-1
2.002400000E-2,-6.737040253E0,-6.606362000E0,-1.721420288E-1
3.003700000E-2,-7.410489807E0,-6.376889191E0,-2.748284912E-1
4.004900000E-2,-8.197852478E0,-6.319259033E0,2.062710571E-1
5.006100000E-2,-9.011859741E0,-6.312223663E0,1.269360352E0
6.007300000E-2,-9.608968048E0,-6.236181793E0,2.437830505E0
7.008500000E-2,-9.569300537E0,-6.204747162E0,3.204236755E0
8.009700000E-2,-8.834927673E0,-6.190227356E0,3.451073456E0
9.011000000E-2,-7.623197479E0,-6.180347900E0,3.356919250E0
1.001220000E-1,-6.424939270E0,-6.298751678E0,3.144810333E0
1.101340000E-1,-5.420378265E0,-6.507567444E0,3.063529358E0
1.201460000E-1,-4.528981934E0,-6.704108734E0,3.117716675E0
1.301580000E-1,-3.610791321E0,-6.845115509E0,3.033591614E0
1.401700000E-1,-2.666554871E0,-6.918163605E0,2.766546936E0
1.501820000E-1,-1.942959595E0,-6.760092316E0,2.265239410E0
1.601950000E-1,-1.694027252E0,-6.355932770E0,1.850751343E0
1.702070000E-1,-1.977388000E0,-5.855822754E0,1.698218536E0
1.802190000E-1,-2.639012146E0,-5.445975037E0,1.696422272E0
1.902310000E-1,-3.492986298E0,-5.183720398E0,1.859433289E0
2.002430000E-1,-4.634662170E0,-4.979994049E0,2.382894745E0
2.102550000E-1,-5.717360687E0,-4.944667511E0,3.063978424E0
2.202680000E-1,-6.557713165E0,-4.890629883E0,3.433110809E0
2.302800000E-1,-7.130422211E0,-4.727618866E0,3.621419220E0
2.402920000E-1,-7.584727478E0,-4.513114929E0,3.434458008E0
2.503040000E-1,-7.979756012E0,-4.188739471E0,3.558699646E0
2.603160000E-1,-7.786058807E0,-3.859274597E0,4.255201263E0
2.703280000E-1,-7.607629852E0,-3.544628906E0,4.470004578E0
2.803410000E-1,-7.629783783E0,-3.447181549E0,4.641847229E0
2.903530000E-1,-7.655829620E0,-3.583697662E0,5.095254364E0
3.003650000E-1,-7.751480713E0,-3.827540588E0,5.339845734E0
3.103770000E-1,-7.788154449E0,-4.202211456E0,5.409151611E0
3.203890000E-1,-7.881859589E0,-4.478536835E0,5.271138611E0
3.304010000E-1,-8.001909943E0,-4.709207153E0,5.091961212E0
3.404140000E-1,-8.008496246E0,-4.945415955E0,5.005441132E0
3.504260000E-1,-7.765850830E0,-5.241350555E0,4.953349457E0
3.604380000E-1,-7.651937714E0,-5.261259155E0,4.882995758E0
3.704500000E-1,-7.271878052E0,-5.218897247E0,5.339845734E0
3.804620000E-1,-6.634653168E0,-5.436394958E0,4.960384827E0
3.904740000E-1,-6.265670471E0,-5.777086487E0,4.796325989E0
4.004860000E-1,-6.309379578E0,-6.459667053E0,5.325625305E0
4.104990000E-1,-6.906787262E0,-7.228168945E0,5.501210175E0
4.205110000E-1,-7.780520325E0,-7.811655579E0,5.130281525E0
4.305230000E-1,-8.360713806E0,-8.323740692E0,4.124523010E0
4.405350000E-1,-8.880433044E0,-8.590785370E0,3.560046844E0
4.505470000E-1,-9.548942871E0,-8.522826691E0,3.252586212E0
4.605590000E-1,-9.748178558E0,-8.012986908E0,1.905986481E0
4.705710000E-1,-9.183702393E0,-7.425758057E0,7.304809570E-1
4.805840000E-1,-8.661438446E0,-7.149732056E0,2.248324585E-1
4.905960000E-1,-8.152646484E0,-6.906038818E0,-2.020797729E-2
5.006080000E-1,-7.426805878E0,-6.800957336E0,6.378236389E-1
5.106200000E-1,-6.448739777E0,-7.043752441E0,1.751807098E0
5.206320000E-1,-5.110522614E0,-7.875872040E0,2.180066528E0
5.306440000E-1,-3.597918091E0,-8.897347870E0,1.707199860E0
5.406570000E-1,-2.455793152E0,-9.126371613E0,1.207987976E0
5.506690000E-1,-2.120041351E0,-8.792116699E0,1.332678680E0
5.606810000E-1,-4.276307373E0,-6.190526733E0,2.243684235E0
5.706930000E-1,-9.187145233E0,-7.084767151E-1,4.611909485E-1
5.807048750E-1,-9.504335632E0,-4.260290680E0,-1.103056183E0
5.907168750E-1,-9.943821716E0,-7.596702576E0,-1.226998444E0
6.007288750E-1,-1.122186401E1,-7.327412567E0,-1.836530914E0
6.107418750E-1,-1.065828598E1,-8.821306000E0,-1.895059204E0
6.207538750E-1,-9.169332275E0,-1.028750702E1,-1.552122345E0
6.307658750E-1,-7.682623901E0,-9.641450500E0,-6.129753113E-1
6.407778750E-1,-6.329288177E0,-8.674012299E0,4.571493530E-1
6.507898750E-1,-5.705086212E0,-8.026608582E0,7.942483521E-1
6.608018750E-1,-5.428012390E0,-7.653733978E0,2.862048340E-1
6.708138750E-1,-5.006039886E0,-8.009544067E0,-1.613644409E-1
6.808268750E-1,-4.441863098E0,-8.380622406E0,-3.041674805E-1
6.908388750E-1,-3.774251404E0,-8.549171906E0,7.529342651E-2
7.008508750E-1,-2.951711884E0,-8.671617279E0,1.011746063E0
7.108628750E-1,-2.510878601E0,-8.374934235E0,2.138003998E0
7.208748750E-1,-2.915187836E0,-7.754175110E0,2.371967468E0
7.308868750E-1,-4.262236633E0,-6.736441498E0,1.344504089E0
7.408988750E-1,-5.963748322E0,-5.767506409E0,-4.568499756E-1
7.509118750E-1,-7.320826263E0,-5.160668335E0,-1.308279419E0
7.609238750E-1,-7.740703125E0,-5.314997406E0,-8.852590942E-1
7.709358750E-1,-7.531138916E0,-5.689069519E0,-6.515950012E-1
7.809478750E-1,-7.266788635E0,-5.709576874E0,-7.596702576E-1
7.909598750E-1,-7.151378632E0,-5.510790253E0,-6.722520447E-1
8.009718750E-1,-7.169640656E0,-5.211861877E0,-4.062551880E-1
8.109838750E-1,-7.250472565E0,-5.115462341E0,-4.535568237E-2
8.209968750E-1,-7.261250153E0,-5.436095581E0,2.944377136E-1
8.310088750E-1,-7.142097931E0,-5.834566956E0,7.557783508E-1
8.410208750E-1,-6.939718781E0,-6.251899109E0,1.301992493E0
8.510328750E-1,-6.642287292E0,-6.620732117E0,1.828597412E0
8.610448750E-1,-6.359225922E0,-6.883585510E0,2.390528870E0
8.710568750E-1,-6.159391479E0,-6.932982788E0,2.429447937E0
8.810698750E-1,-6.071823578E0,-6.885830841E0,2.057172089E0
8.910818750E-1,-6.038293304E0,-6.853947144E0,1.478475494E0
9.010938750E-1,-6.033952332E0,-6.795718231E0,1.003962250E0
9.111058750E-1,-6.079906769E0,-6.750063171E0,9.021739197E-1
9.211178750E-1,-6.266568604E0,-6.673572235E0,1.322948914E0
9.311298750E-1,-6.772217102E0,-6.505471802E0,1.939367065E0
9.411418750E-1,-7.796686707E0,-6.261329498E0,2.362537079E0
9.511538750E-1,-9.131011963E0,-5.772745514E0,2.157613220E0
9.611668750E-1,-9.862989807E0,-5.307662659E0,1.697470093E0
9.711788750E-1,-9.915979614E0,-4.982538757E0,1.196911011E0
9.811908750E-1,-9.775571594E0,-4.967719574E0,6.649172974E-1
9.912028750E-1,-9.609417114E0,-5.284760284E0,2.589614868E-1
1.001214875E0,-9.408684540E0,-5.959856415E0,1.752854919E-1
1.011226875E0,-9.214837646E0,-6.831643524E0,2.312690735E-1
1.021238875E0,-8.945697327E0,-7.656128998E0,-2.059716797E-1
1.031251875E0,-8.769513702E0,-8.349337463E0,-1.029259644E0
1.041263875E0,-9.057065735E0,-8.772357788E0,-1.027014313E0
1.051275875E0,-9.729617157E0,-9.325008545E0,-5.174739075E-1
1.061287875E0,-1.011761032E1,-1.009904892E1,-4.412823486E-1
1.071299875E0,-1.019350250E1,-1.056907150E1,-3.950285339E-1
1.081311875E0,-9.696086884E0,-1.090781708E1,-8.696914673E-2
1.091324875E0,-8.483458557E0,-1.105660767E1,7.188052368E-1
1.101336875E0,-7.002588043E0,-1.097323105E1,1.636846161E0
1.111348875E0,-5.351970520E0,-1.098894836E1,2.547851715E0
1.121360875E0,-4.257446594E0,-1.109642487E1,3.193010101E0
1.131372875E0,-3.970193939E0,-1.144759460E1,3.151845703E0
1.141384875E0,-4.290527802E0,-1.182421143E1,2.589016113E0
1.151396875E0,-5.136269073E0,-1.155132889E1,2.027234344E0
1.161408875E0,-6.650220795E0,-9.874366150E0,1.659598846E0
1.171421875E0,-8.541687469E0,-6.974596252E0,1.094972992E0
1.181433875E0,-7.764353943E0,-7.936945038E0,1.500928802E0
1.191445875E0,-6.739135895E0,-8.809630280E0,7.384144592E-1
1.201457875E0,-7.133715363E0,-7.895930328E0,-6.313870239E-1
1.211469875E0,-7.650740204E0,-7.387437744E0,-1.200204163E0
1.221481875E0,-8.151748352E0,-7.005731506E0,-7.514373779E-1
1.231493875E0,-8.520581360E0,-6.431226196E0,3.156935120E-1
1.241506875E0,-8.760831757E0,-5.968089294E0,1.744322662E0
1.251518875E0,-8.809181213E0,-5.700595551E0,2.942880249E0
1.261530875E0,-8.496780853E0,-5.775589600E0,3.686084747E0
1.271542875E0,-7.822582855E0,-6.059549103E0,3.987707520E0
1.281554875E0,-6.733896790E0,-6.310876465E0,3.795956268E0
1.291566875E0,-5.513484650E0,-6.396348724E0,3.326532440E0
1.301578875E0,-4.295467529E0,-6.217770081E0,2.787802734E0
1.311591875E0,-3.444038086E0,-5.746400299E0,2.466870117E0
1.321603875E0,-2.757266235E0,-5.217849426E0,2.409389648E0
1.331615875E0,-1.978735199E0,-4.807253265E0,2.313139801E0
1.341627875E0,-1.458117828E0,-4.544699249E0,2.274969177E0
1.351639875E0,-1.393152924E0,-4.410129089E0,2.217189331E0
1.361651875E0,-1.803000641E0,-4.333787842E0,2.196532288E0
1.371663875E0,-2.592458954E0,-4.236490173E0,2.294129333E0
1.381676875E0,-3.535198517E0,-4.094136200E0,2.453398132E0
1.391688875E0,-4.386777649E0,-3.873944092E0,2.593357086E0
1.401700875E0,-5.055287476E0,-3.609294434E0,2.859204254E0
1.411712875E0,-5.547913055E0,-3.404969330E0,3.333118744E0
1.421724875E0,-5.996530151E0,-3.362308044E0,3.897445221E0
1.431736875E0,-6.497089233E0,-3.482957153E0,4.397106171E0
1.441748875E0,-7.045548706E0,-3.603007507E0,4.684059448E0
1.451761875E0,-7.613467712E0,-3.638034668E0,4.726421356E0
1.461773875E0,-8.457562408E0,-3.557053070E0,4.664899292E0
1.471785875E0,-7.802075500E0,-4.449197845E0,6.259982300E0
1.481797875E0,-8.095315704E0,-5.076393585E0,5.145998840E0
1.491809875E0,-8.612639923E0,-5.454507294E0,5.004093933E0
1.501821875E0,-8.879085846E0,-5.873785400E0,5.458399200E0
1.511833875E0,-9.296717377E0,-6.575675812E0,5.536536713E0
1.521846875E0,-9.582922211E0,-6.877448273E0,5.933810577E0
1.531858875E0,-9.593250732E0,-6.442602539E0,6.240522766E0
1.541870875E0,-9.047485657E0,-5.805078278E0,6.105353851E0
1.551882875E0,-7.946076050E0,-5.482798462E0,5.691763916E0
1.561894875E0,-6.728657684E0,-5.525759125E0,5.021906891E0
1.571906875E0,-6.353388062E0,-5.750591583E0,4.453389130E0
1.581920083E0,-7.526498566E0,-6.284381561E0,4.262985077E0
1.591933083E0,-9.184750214E0,-7.185807037E0,3.468287659E0
1.601945083E0,-1.001387604E1,-8.008196869E0,1.141675873E0
1.611957083E0,-9.812544708E0,-8.934171295E0,-7.185058594E-1
1.621969083E0,-9.189989319E0,-9.742041321E0,-1.392853546E0
1.631981083E0,-8.559201050E0,-9.931846619E0,-1.310225372E0
1.641993083E0,-8.310119019E0,-9.687704315E0,-1.094374237E0
1.652005083E0,-8.315657501E0,-9.306147766E0,-6.189628601E-1
1.662018083E0,-7.597151642E0,-8.806786194E0,2.390528870E-1
1.672030083E0,-5.781427460E0,-8.188721466E0,8.831634521E-1
1.682042083E0,-3.719165955E0,-7.415878601E0,1.020877075E0
1.692054083E0,-2.445464630E0,-6.466103668E0,7.578739929E-1
1.702066083E0,-2.378254395E0,-5.673052826E0,4.716691589E-1
1.712078083E0,-3.048710175E0,-5.647006989E0,1.032852173E-1
1.722090083E0,-4.004472656E0,-6.268215179E0,-4.617897034E-1
1.732103083E0,-4.979694672E0,-7.368427277E0,-9.942324829E-1
1.742115083E0,-6.025270386E0,-8.583899689E0,-1.093625793E0
1.752127083E0,-6.939269714E0,-9.263037415E0,-4.983137512E-1
1.762139083E0,-7.380252686E0,-9.265432434E0,5.020559692E-1
1.772151083E0,-7.351811829E0,-9.026678925E0,1.268611908E0
1.782163083E0,-7.308701477E0,-8.606203308E0,1.496288452E0
1.792175083E0,-8.414002991E0,-6.562652893E0,7.906558228E-1
1.802188083E0,-1.218406311E1,-9.505233765E-1,-1.222956848E-1
1.812200083E0,-8.835825806E0,-7.514822845E0,1.335672455E0
1.822212083E0,-7.605085144E0,-1.001043320E1,6.188131714E-1
1.832224083E0,-7.151528320E0,-8.534203033E0,3.520678711E-1
1.842236083E0,-6.193969574E0,-7.118896179E0,1.190773773E0
1.852248083E0,-5.460644531E0,-6.962022400E0,1.009949799E0
1.862260083E0,-4.903802490E0,-7.323071594E0,4.595443726E-1
1.872273083E0,-4.617447968E0,-7.485932922E0,3.832031250E-2
1.882285083E0,-4.600682831E0,-7.511529694E0,-5.553451538E-2
1.892297083E0,-4.981790314E0,-7.270830231E0,-1.107696533E-2
1.902309083E0,-5.784870300E0,-6.974596252E0,3.161425781E-1
1.912321083E0,-6.882238312E0,-6.455775146E0,6.153703308E-1
1.922333083E0,-7.548802185E0,-6.012696533E0,8.234376526E-1
1.932345083E0,-7.732021179E0,-5.675148468E0,1.055604858E0
1.942358083E0,-7.640112305E0,-5.532944183E0,1.338516541E0
1.952370083E0,-7.361541595E0,-5.581593018E0,1.588496704E0
1.962382083E0,-7.066505127E0,-5.723797302E0,1.787582703E0
1.972394083E0,-6.802603912E0,-5.876629486E0,1.911974030E0
1.982406083E0,-6.636000366E0,-6.155798950E0,1.886976013E0
1.992418083E0,-6.606661377E0,-6.489904175E0,1.709594879E0
2.002431083E0,-6.467899933E0,-7.093449097E0,1.420845337E0
2.012443083E0,-6.153403931E0,-7.291636963E0,1.367855530E0
2.022455083E0,-6.007008362E0,-6.850204926E0,1.368304596E0
2.032467083E0,-6.049070892E0,-6.443800049E0,1.429826660E0
2.042479083E0,-6.199807434E0,-6.094127197E0,1.486109619E0
2.052491083E0,-6.485563202E0,-5.621709595E0,1.348545685E0
2.062503083E0,-6.817872162E0,-5.275329895E0,1.131497040E0
2.072516083E0,-7.031777344E0,-5.179828491E0,8.828640747E-1
2.082528083E0,-7.077731781E0,-5.383105774E0,8.135581970E-1
2.092540083E0,-7.070546722E0,-5.852230225E0,7.930508423E-1
2.102552083E0,-7.389683075E0,-6.410868530E0,1.120420074E0
2.112564083E0,-8.004005585E0,-6.455625458E0,1.851948853E0
2.122576083E0,-8.508157196E0,-6.397097168E0,2.162702637E0
2.132588083E0,-8.719367981E0,-6.052663422E0,2.263443146E0
2.142601083E0,-8.766070862E0,-6.172115021E0,1.780397644E0
2.152613083E0,-8.968000946E0,-6.572831726E0,1.009800110E0
2.162625083E0,-9.467661896E0,-7.095544739E0,5.992039490E-1
2.172637083E0,-1.018047958E1,-7.874075775E0,4.210743713E-1
2.182649083E0,-1.091769653E1,-8.670868835E0,-2.978805542E-2
2.192661083E0,-1.128428421E1,-9.187893677E0,-3.643423462E-1
2.202673083E0,-1.148097519E1,-9.790091400E0,-6.855743408E-1
2.212686083E0,-1.192300598E1,-1.066502197E1,-1.038240967E0
2.222698083E0,-1.198692307E1,-1.120225479E1,-1.088386688E0
2.232710083E0,-1.108654541E1,-1.101649109E1,-7.692503357E-1
2.242722083E0,-9.533375244E0,-1.014635056E1,-6.180647278E-1
2.252734083E0,-7.517217865E0,-8.841813354E0,-3.351530457E-1
2.262746083E0,-5.304668884E0,-7.593559113E0,1.369651794E-1
2.272758083E0,-3.605402527E0,-6.677164764E0,7.912545776E-1
2.282771083E0,-2.971171417E0,-6.034102020E0,1.476379852E0
2.292783083E0,-3.079695740E0,-7.068750458E0,2.450104980E0
2.302795083E0,-3.722010040E0,-7.867788849E0,2.540516968E0
2.312807083E0,-4.466861115E0,-8.191415863E0,2.635269928E0
2.322819083E0,-5.087171173E0,-8.408165131E0,2.883304138E0
2.332831083E0,-5.454058228E0,-8.489595795E0,2.681224365E0
2.342843083E0,-5.660478973E0,-8.242160339E0,1.987566833E0
2.352856083E0,-5.843548279E0,-7.762857056E0,1.486408997E0
2.362868083E0,-6.058800659E0,-7.443271637E0,1.311273193E0
2.372880083E0,-6.472989349E0,-7.186405792E0,1.051712952E0
2.382892083E0,-7.317982178E0,-6.762786713E0,8.928932190E-1
2.392904083E0,-8.630303192E0,-6.534511414E0,1.200054474E0
2.402916083E0,-9.946516113E0,-6.317313080E0,1.804647217E0
2.412928083E0,-1.077010345E1,-6.336473236E0,2.681523743E0
2.422941083E0,-1.070603668E1,-6.394402771E0,3.151546326E0
2.432953083E0,-9.699829102E0,-6.567143555E0,3.366798706E0
2.442965083E0,-8.226293335E0,-6.801556091E0,3.161874847E0
2.452977083E0,-6.873556366E0,-7.008874969E0,2.662213898E0
2.462989083E0,-5.766009521E0,-7.095694427E0,2.180365906E0
2.473001083E0,-4.862488403E0,-7.028184814E0,1.952240295E0
2.483014083E0,-4.128863983E0,-6.874604187E0,2.135010223E0
2.493026083E0,-3.428470459E0,-6.683002625E0,2.766696625E0
2.503038083E0,-2.805016937E0,-6.533313904E0,3.517086182E0
2.513050083E0,-2.570155334E0,-6.272705841E0,3.934568024E0
2.523062083E0,-2.780018921E0,-5.944288788E0,3.985761566E0
2.533074083E0,-3.950734406E0,-4.959337006E0,3.256927185E0
2.543086083E0,-5.065166931E0,-4.547393646E0,3.695066071E0
2.553098083E0,-5.019212494E0,-6.033353577E0,3.578159180E0
2.563111083E0,-5.784271545E0,-5.426665192E0,2.784659271E0
2.573123083E0,-6.229146423E0,-4.706213379E0,2.526296539E0
2.583134833E0,-6.020330658E0,-4.484674072E0,2.332299957E0
2.593146833E0,-5.560636597E0,-4.251908112E0,2.459086304E0
2.603158833E0,-5.040019226E0,-4.060456238E0,2.897225189E0
2.613170833E0,-4.876559143E0,-3.850592651E0,3.387755127E0
2.623183833E0,-5.103936310E0,-3.780388641E0,3.951482849E0
2.633195833E0,-5.743406525E0,-3.788920898E0,4.630321198E0
2.643207833E0,-6.648723907E0,-4.058510284E0,5.395829315E0
2.653219833E0,-7.589517517E0,-4.505331116E0,6.100863190E0
2.663231833E0,-8.335117035E0,-4.974455566E0,6.520290985E0
2.673243833E0,-8.633296967E0,-5.442681885E0,6.453978882E0
2.683255833E0,-8.276139679E0,-5.784720612E0,5.619464264E0
2.693268833E0,-7.644303589E0,-5.789959717E0,4.351301422E0
2.703280833E0,-7.400310974E0,-5.559888153E0,3.307222595E0
2.713292833E0,-7.455396423E0,-5.274880829E0,3.028651886E0
2.723304833E0,-7.753426666E0,-5.080584869E0,3.435954895E0
2.733316833E0,-8.154442749E0,-4.907544708E0,4.090094604E0
2.743328833E0,-8.608748016E0,-5.207820282E0,4.290378113E0
2.753340833E0,-9.477241974E0,-6.378086700E0,4.310586090E0
2.763353833E0,-1.086530548E1,-7.948171692E0,3.846700745E0
2.773365833E0,-1.165431473E1,-9.545799408E0,2.195634155E0
2.783377833E0,-1.119147720E1,-1.109507767E1,3.309617615E-1
2.793389833E0,-9.934690704E0,-1.181178726E1,-1.159039764E0
2.803401833E0,-8.582402802E0,-1.117082016E1,-1.845811615E0
2.813413833E0,-7.032525787E0,-9.997559967E0,-1.690584412E0
2.823425833E0,-5.679339752E0,-9.034911804E0,-1.194066925E0
2.833438833E0,-4.818180542E0,-8.228987732E0,-7.982899475E-1
2.843450833E0,-4.383185120E0,-7.323820038E0,-6.432124329E-1
2.853462833E0,-4.136797485E0,-6.252048798E0,-5.285508728E-1
2.863474833E0,-4.579726410E0,-4.517904968E0,-8.909472656E-1
2.873486833E0,-5.018464050E0,-2.868185577E0,-6.219566345E-1
2.883498833E0,-4.633464661E0,-3.722459106E0,2.871029663E-1
2.893510833E0,-4.652924194E0,-5.938600616E0,-3.324586487E-1
2.903523833E0,-5.284610596E0,-7.298073578E0,-4.773573303E-1
2.913535833E0,-5.946833496E0,-7.606582031E0,6.271957397E-2
2.923547833E0,-6.206992493E0,-7.495213623E0,4.472698975E-1
2.933559833E0,-5.893843689E0,-7.558382263E0,2.186952209E-1
2.943571833E0,-5.432053986E0,-7.553442535E0,1.796264648E-2
2.953583833E0,-5.120851135E0,-8.115972748E0,2.155517578E-2
2.963595833E0,-5.942342834E0,-8.169261932E0,4.366419983E-1
2.973608833E0,-7.424560547E0,-7.843539276E0,9.945318604E-1
2.983620833E0,-8.370593262E0,-7.648644562E0,1.161285095E0
2.993632833E0,-8.447982330E0,-7.488926697E0,1.018482056E0
3.003644833E0,-8.297395477E0,-7.102280731E0,8.571176147E-1
3.013656833E0,-8.034691772E0,-6.982829132E0,8.569679260E-1
3.023668833E0,-7.822433167E0,-6.853647766E0,9.134005737E-1
3.033680833E0,-7.586823120E0,-6.690936127E0,8.904981995E-1
3.043693833E0,-7.528893585E0,-6.204148407E0,7.613168335E-1
3.053705833E0,-7.357200623E0,-5.970184937E0,5.818400574E-1
3.063717833E0,-7.152127075E0,-5.916746063E0,4.019142151E-1
3.073729833E0,-6.962920532E0,-5.928122406E0,3.170407104E-1
3.083741833E0,-6.685846710E0,-6.284531250E0,2.338137817E-1
3.093753833E0,-6.733747101E0,-6.192772064E0,3.861968994E-2
3.103765833E0,-6.739584961E0,-6.213578796E0,1.496887207E-4
3.113777833E0,-6.685098267E0,-6.427334290E0,5.852828979E-2
3.123790833E0,-6.678212585E0,-6.636898499E0,1.160087585E-1
3.133802833E0,-6.392456818E0,-6.869065704E0,4.143383789E-1
3.143814833E0,-6.379134521E0,-6.368806000E0,7.003935242E-1
3.153826833E0,-6.567742310E0,-5.909561005E0,8.196954346E-1
3.163838833E0,-6.774013367E0,-5.805527344E0,9.702822876E-1
3.173850833E0,-6.955735474E0,-5.841752014E0,1.119821320E0
3.183862833E0,-7.044650574E0,-5.945186920E0,1.207239532E0
3.193875833E0,-7.059769135E0,-6.118825836E0,1.307381287E0
3.203887833E0,-6.940616913E0,-6.131100311E0,1.341510315E0
3.213899833E0,-6.790030060E0,-6.159990234E0,1.335672455E0
3.223911833E0,-6.801556091E0,-6.189179535E0,1.269809418E0
3.233923833E0,-6.909781036E0,-6.218069458E0,1.185384979E0
3.243935833E0,-7.085964661E0,-6.307433624E0,1.166524200E0
3.253947833E0,-7.381749573E0,-6.349196777E0,1.129251709E0
3.263960833E0,-7.829917603E0,-6.180048523E0,1.029409332E0
3.273972833E0,-8.396938477E0,-6.040388947E0,7.698490906E-1
3.283984833E0,-8.940757599E0,-6.091732178E0,5.923182678E-1
3.293996833E0,-9.297765198E0,-6.368356934E0,5.203179932E-1
3.304008833E0,-9.484277344E0,-6.528074799E0,5.626799011E-1
3.314020833E0,-9.551786957E0,-6.707102509E0,8.093669128E-1
3.324032833E0,-9.678273926E0,-7.226073303E0,1.008452911E0
3.334045833E0,-9.893825684E0,-7.981851654E0,1.476230164E0
3.344057833E0,-1.021161484E1,-8.227640533E0,1.944606171E0
3.354069833E0,-1.033391052E1,-8.618627472E0,1.539249115E0
3.364081833E0,-1.041623932E1,-8.843908997E0,8.583151245E-1
3.374093833E0,-1.055065979E1,-8.824599152E0,1.775308228E-1
3.384105833E0,-1.059811111E1,-8.709937592E0,-3.553610229E-1
