"Time (s)","Acceleration x (m/s^2)","Acceleration y (m/s^2)","Acceleration z (m/s^2)"
0.000000000E0,1.974078640E-2,6.866802692E0,8.136195183E0
2.465938000E-3,-7.716853172E-2,6.864409924E0,8.268997192E0
4.931875000E-3,-1.501496136E-1,6.881757736E0,8.377870560E0
7.397813000E-3,-1.800599098E-1,6.914659023E0,8.444271088E0
9.863698000E-3,-1.752742529E-1,6.905686378E0,8.501698494E0
1.232968800E-2,-1.280160099E-1,6.921239376E0,8.511270523E0
1.479557300E-2,-5.084748194E-2,6.894918442E0,8.512466431E0
1.726151100E-2,3.230310604E-2,6.849454880E0,8.480163574E0
1.972744800E-2,9.631111473E-2,6.808178425E0,8.399405479E0
2.219338600E-2,1.842473447E-1,6.753143787E0,8.310273170E0
2.465932300E-2,2.590230405E-1,6.697510719E0,8.191828728E0
2.712526100E-2,3.284149170E-1,6.641877651E0,8.069195747E0
2.959119800E-2,3.786641955E-1,6.590431690E0,7.965108395E0
3.205713600E-2,4.426721931E-1,6.543771744E0,7.861618996E0
3.452307300E-2,4.881358147E-1,6.511468410E0,7.728816986E0
3.698901100E-2,5.569294691E-1,6.488736629E0,7.577471256E0
3.945494800E-2,6.059823632E-1,6.474977970E0,7.430312634E0
4.192088600E-2,6.257231236E-1,6.484549522E0,7.296912670E0
4.438682300E-2,6.789634228E-1,6.485147476E0,7.158727169E0
4.685276100E-2,6.610172391E-1,6.488736629E0,6.997211456E0
4.931869800E-2,6.945167780E-1,6.508477688E0,6.878168583E0
5.178463600E-2,7.190431952E-1,6.518048763E0,6.744768620E0
5.425057300E-2,7.399803996E-1,6.498906136E0,6.650252342E0
5.671651100E-2,7.848458290E-1,6.475576401E0,6.531807423E0
5.918244800E-2,8.243274093E-1,6.457630157E0,6.455835342E0
6.164838600E-2,8.632107973E-1,6.448657036E0,6.389434814E0
6.411427100E-2,8.877372146E-1,6.430112839E0,6.356533527E0
6.658020900E-2,8.644071817E-1,6.438487530E0,6.313462734E0
6.904619800E-2,8.446664214E-1,6.452246189E0,6.289534092E0
7.151208400E-2,8.105686903E-1,6.470192432E0,6.284150600E0
7.397802100E-2,7.776673436E-1,6.473781586E0,6.236293793E0
7.644395900E-2,7.435696125E-1,6.463014126E0,6.260222435E0
7.890989600E-2,6.903293133E-1,6.471388817E0,6.288337708E0
8.137583400E-2,6.293123364E-1,6.440880299E0,6.311667919E0
8.384177100E-2,5.910272002E-1,6.430112839E0,6.339783669E0
8.630770900E-2,5.629115105E-1,6.410371780E0,6.378068924E0
8.877364600E-2,5.294120312E-1,6.390032768E0,6.420541286E0
9.123958400E-2,4.666004181E-1,6.384050846E0,6.525227547E0
9.370552100E-2,4.085744619E-1,6.392425537E0,6.634100914E0
9.617145900E-2,3.553341627E-1,6.391229153E0,6.709474564E0
9.863739600E-2,3.068794906E-1,6.380461693E0,6.818946362E0
1.011033340E-1,2.781656384E-1,6.370890141E0,6.918846607E0
1.035692710E-1,2.494517565E-1,6.341578007E0,7.028318405E0
1.060352090E-1,2.398804724E-1,6.313462734E0,7.128218651E0
1.085011460E-1,1.968096644E-1,6.298507214E0,7.213762283E0
1.109670840E-1,1.728814393E-1,6.278766632E0,7.323832035E0
1.134330210E-1,1.441675574E-1,6.254838467E0,7.404589653E0
1.158989590E-1,1.345962733E-1,6.240481377E0,7.490133286E0
1.183648960E-1,1.106680483E-1,6.211767673E0,7.585247993E0
1.208307820E-1,1.070788130E-1,6.169294834E0,7.671389580E0
1.232967190E-1,1.070788130E-1,6.145366669E0,7.709674358E0
1.257626570E-1,6.460621208E-2,6.125027657E0,7.719245911E0
1.282285940E-1,4.187439755E-2,6.086144447E0,7.771289825E0
1.306945320E-1,-1.076770201E-2,6.075376511E0,7.800003529E0
1.331604690E-1,-3.888336942E-2,6.055635929E0,7.842476368E0
1.356264070E-1,-3.409772366E-2,6.032305717E0,7.904689789E0
1.380923440E-1,-3.409772366E-2,6.018547058E0,7.966903210E0
1.405582820E-1,8.374879137E-3,6.020341873E0,8.042875290E0
1.430242190E-1,6.221338734E-2,5.983851433E0,8.067401886E0
1.454901570E-1,1.160518974E-1,5.942574978E0,8.063812256E0
1.479560940E-1,1.597209126E-1,5.915057659E0,8.069195747E0
1.504220320E-1,1.704886109E-1,5.877370834E0,8.083553314E0
1.528879690E-1,1.519442350E-1,5.862415314E0,8.088338852E0
1.553539070E-1,1.244267747E-1,5.832505226E0,8.059624672E0
1.578198440E-1,5.024927482E-2,5.772684574E0,8.021339417E0
1.602857820E-1,-4.366901144E-2,5.712265968E0,7.983054638E0
1.627517190E-1,-1.531406492E-1,5.703890800E0,7.939385414E0
1.652176570E-1,-2.907279432E-1,5.690132141E0,7.871788502E0
1.676835940E-1,-4.301098585E-1,5.690132141E0,7.842476368E0
1.701495320E-1,-5.934200287E-1,5.727818966E0,7.835896015E0
1.726154170E-1,-7.489534616E-1,5.790032387E0,7.843672752E0
1.750814070E-1,-8.697910309E-1,5.839085579E0,7.871190071E0
1.775472920E-1,-9.816554785E-1,5.892923832E0,7.893323898E0
1.800132290E-1,-1.068993568E0,5.919245243E0,7.954340458E0
1.824791670E-1,-1.108475089E0,5.932405472E0,7.992027760E0
1.849451040E-1,-1.142572761E0,5.946164131E0,8.024929047E0
1.874110420E-1,-1.119242787E0,5.951548100E0,8.087141991E0
1.898769790E-1,-1.086341500E0,5.962913990E0,8.130212784E0
1.923429170E-1,-1.058225870E0,5.973083496E0,8.178069115E0
1.948088540E-1,-9.816554785E-1,5.971288681E0,8.225926399E0
1.972747920E-1,-8.865407705E-1,5.974279881E0,8.255238533E0
1.997407290E-1,-7.609176040E-1,5.940182209E0,8.274380684E0
2.022066670E-1,-6.077769399E-1,5.930611134E0,8.261219978E0
2.046726040E-1,-4.666004181E-1,5.863611698E0,8.229515076E0
2.071385420E-1,-3.349951804E-1,5.814558983E0,8.173882484E0
2.096044790E-1,-2.177468538E-1,5.755934715E0,8.103892326E0
2.120704170E-1,-9.152546525E-2,5.706882000E0,8.005187988E0
2.145363540E-1,2.153540403E-2,5.657230854E0,7.868198872E0
2.170022920E-1,1.094716340E-1,5.615954876E0,7.735995770E0
2.194682290E-1,1.830509305E-1,5.598606586E0,7.584649563E0
2.219341150E-1,2.566302419E-1,5.571089268E0,7.395018578E0
2.244001040E-1,2.817548811E-1,5.571089268E0,7.228118896E0
2.268659900E-1,3.451646566E-1,5.576473236E0,7.066603661E0
2.293319270E-1,3.930211067E-1,5.605785370E0,6.881159782E0
2.317978650E-1,4.612165689E-1,5.611767292E0,6.729215622E0
2.342638020E-1,5.288137794E-1,5.622535229E0,6.568298340E0
2.367297400E-1,5.964110494E-1,5.623731613E0,6.445067883E0
2.391956770E-1,6.508477330E-1,5.596213818E0,6.307480335E0
2.416616150E-1,6.981059909E-1,5.501697540E0,6.184848309E0
2.441275520E-1,6.993024349E-1,5.481956482E0,6.108277798E0
2.465934900E-1,6.807580590E-1,5.476572990E0,6.027520180E0
2.490594270E-1,5.844469070E-1,5.496912003E0,5.969494343E0
2.515253650E-1,4.348955154E-1,5.544768333E0,5.996413708E0
2.539913020E-1,3.272185028E-1,5.594419479E0,6.075974941E0
2.564572400E-1,1.812563092E-1,5.647659779E0,6.189035892E0
2.589231770E-1,7.896314561E-2,5.683551788E0,6.306882381E0
2.613891150E-1,-3.768695518E-2,5.704489231E0,6.458228111E0
2.638550520E-1,-1.304088384E-1,5.731408596E0,6.638288021E0
2.663209900E-1,-2.422732860E-1,5.748157978E0,6.836892605E0
2.687869270E-1,-3.296113312E-1,5.741578102E0,7.045666218E0
2.712528650E-1,-4.133601189E-1,5.749952793E0,7.230511665E0
2.737187500E-1,-5.006981492E-1,5.748157978E0,7.425527096E0
2.761846880E-1,-5.335994363E-1,5.695516109E0,7.611568928E0
2.786506250E-1,-5.581258535E-1,5.667400360E0,7.797012806E0
2.811165630E-1,-5.760720372E-1,5.600999832E0,7.963912010E0
2.835825000E-1,-5.665007830E-1,5.559125423E0,8.121838570E0
2.860484380E-1,-5.563312769E-1,5.512465000E0,8.288737297E0
2.885143750E-1,-5.407779217E-1,5.437091351E0,8.418548584E0
2.909803130E-1,-5.114658475E-1,5.391029358E0,8.542975426E0
2.934462500E-1,-4.713860750E-1,5.307280540E0,8.648259163E0
2.959121880E-1,-4.073780477E-1,5.232504845E0,8.739784241E0
2.983781250E-1,-3.385843933E-1,5.182853699E0,8.840881348E0
3.008440630E-1,-2.620140910E-1,5.142774105E0,8.946166039E0
3.033100000E-1,-2.285145670E-1,5.139184952E0,9.013164520E0
3.057759380E-1,-2.057827413E-1,5.164309502E0,9.093922615E0
3.082418750E-1,-2.219343036E-1,5.197809219E0,9.160323143E0
3.107078130E-1,-2.817548811E-1,5.253442287E0,9.245268822E0
3.131737500E-1,-3.517449200E-1,5.338387489E0,9.315258980E0
3.156396880E-1,-4.504488707E-1,5.397609711E0,9.357132912E0
3.181056250E-1,-5.324030519E-1,5.433502197E0,9.365508080E0
3.205715630E-1,-6.059823632E-1,5.487938881E0,9.331410408E0
3.230374480E-1,-6.777670383E-1,5.504688263E0,9.297312737E0
3.255033860E-1,-7.220342159E-1,5.560321808E0,9.215357780E0
3.279693230E-1,-7.405785918E-1,5.559125423E0,9.096315384E0
3.304352610E-1,-7.447660565E-1,5.577071190E0,8.943773270E0
3.329011980E-1,-7.100701332E-1,5.577071190E0,8.772686005E0
3.353671360E-1,-6.604190469E-1,5.572884083E0,8.544769287E0
3.378330730E-1,-5.964110494E-1,5.563910961E0,8.330612183E0
3.402990110E-1,-5.425725579E-1,5.559723377E0,8.107481003E0
3.427649480E-1,-4.546363056E-1,5.565705299E0,7.874779224E0
3.452308860E-1,-3.649054468E-1,5.514857769E0,7.637889862E0
3.476968230E-1,-2.763710022E-1,5.501697540E0,7.381857872E0
3.501627610E-1,-1.722832322E-1,5.427519798E0,7.135396957E0
3.526286980E-1,-7.836493850E-2,5.386243820E0,6.936194420E0
3.550946360E-1,1.435693540E-2,5.354538918E0,6.747161865E0
3.575605730E-1,4.905286431E-2,5.350351334E0,6.600003242E0
3.600265110E-1,8.793623000E-2,5.360520840E0,6.519245148E0
3.624924480E-1,1.262213886E-1,5.361119270E0,6.462415695E0
3.649583860E-1,1.782652885E-1,5.377270699E0,6.467201233E0
3.674242710E-1,2.171486616E-1,5.354538918E0,6.510870457E0
3.698902090E-1,2.464607358E-1,5.318048477E0,6.577869415E0
3.723561460E-1,2.321037948E-1,5.303691387E0,6.692126751E0
3.748220840E-1,1.746760458E-1,5.264209747E0,6.829713821E0
3.772880210E-1,9.212367237E-2,5.257629395E0,7.015157700E0
3.797539590E-1,-1.914258115E-2,5.260022163E0,7.237690449E0
3.822198960E-1,-1.447657645E-1,5.243272781E0,7.470392227E0
3.846858340E-1,-2.955136001E-1,5.254638672E0,7.750352383E0
3.871517710E-1,-4.701896608E-1,5.260022163E0,8.015357971E0
3.896177090E-1,-6.538388133E-1,5.265406132E0,8.285148621E0
3.920836460E-1,-8.374879360E-1,5.261219025E0,8.541180611E0
3.945495840E-1,-1.016351461E0,5.266602516E0,8.796614647E0
3.970155210E-1,-1.152144074E0,5.273182869E0,9.038289070E0
3.994814590E-1,-1.282552958E0,5.256433010E0,9.308678627E0
4.019336460E-1,-1.379462242E0,5.240281582E0,9.574879646E0
4.044133340E-1,-1.447059512E0,5.215754986E0,9.779465675E0
4.068792710E-1,-1.511067510E0,5.209773064E0,9.973882675E0
4.093314590E-1,-1.549950838E0,5.195415974E0,1.011685371E1
4.118111460E-1,-1.583450437E0,5.166104317E0,1.024068260E1
4.142770840E-1,-1.588235974E0,5.152345181E0,1.035494041E1
4.167429690E-1,-1.588834286E0,5.152345181E0,1.040698433E1
4.192089070E-1,-1.575075507E0,5.158327579E0,1.046441174E1
4.216748440E-1,-1.575673699E0,5.177470207E0,1.047817039E1
4.241407820E-1,-1.571486235E0,5.191826820E0,1.046381378E1
4.266067190E-1,-1.581057549E0,5.215157032E0,1.040638542E1
4.290726570E-1,-1.557129383E0,5.229514122E0,1.032562828E1
4.315385940E-1,-1.555932879E0,5.228915691E0,1.018804073E1
4.340045320E-1,-1.526022673E0,5.219344616E0,1.003609657E1
4.364704690E-1,-1.510469317E0,5.209175110E0,9.864411354E0
4.389364070E-1,-1.498505235E0,5.199005604E0,9.693324089E0
4.414023440E-1,-1.444068432E0,5.190032482E0,9.493523598E0
4.438682820E-1,-1.380658627E0,5.186442852E0,9.289535522E0
4.463342190E-1,-1.317847013E0,5.206183910E0,9.080163956E0
4.488001570E-1,-1.220937729E0,5.212764263E0,8.876175880E0
4.512660940E-1,-1.133599758E0,5.224130154E0,8.657830238E0
4.537320320E-1,-1.064806104E0,5.219942570E0,8.468199730E0
4.561979690E-1,-1.007378340E0,5.258825779E0,8.286943436E0
4.586638540E-1,-9.601200819E-1,5.303092957E0,8.144570351E0
4.611297920E-1,-9.260223508E-1,5.318048477E0,8.011170387E0
4.635957290E-1,-8.829515576E-1,5.342574596E0,7.892127514E0
4.660616670E-1,-8.297112584E-1,5.329414368E0,7.816753387E0
4.685276040E-1,-7.938188910E-1,5.276772022E0,7.727022648E0
4.709935420E-1,-7.716853023E-1,5.191228867E0,7.666005611E0
4.734594790E-1,-7.447660565E-1,5.106283665E0,7.614559650E0
4.759254170E-1,-7.166503668E-1,4.987240791E0,7.558328629E0
4.783913540E-1,-6.747759581E-1,4.878366947E0,7.521838188E0
4.808572920E-1,-6.430711150E-1,4.793421745E0,7.512865067E0
4.833232290E-1,-6.263213158E-1,4.712664127E0,7.527820110E0
4.857891670E-1,-6.005984545E-1,4.651647091E0,7.561917782E0
4.882551040E-1,-6.287141442E-1,4.613361835E0,7.643273830E0
4.907210420E-1,-6.424728632E-1,4.579862595E0,7.719245911E0
4.931869790E-1,-6.963114142E-1,4.588237286E0,7.813762188E0
4.956529170E-1,-7.441678643E-1,4.563711166E0,7.913662910E0
4.981188540E-1,-7.890332937E-1,4.605585575E0,8.046463966E0
5.005847400E-1,-8.913264275E-1,4.612763882E0,8.207381248E0
5.030507290E-1,-9.738788009E-1,4.620540619E0,8.344370842E0
5.055166150E-1,-1.066002488E0,4.633102894E0,8.492127419E0
5.079825520E-1,-1.173081279E0,4.659423828E0,8.647661209E0
5.104484900E-1,-1.279561877E0,4.661816597E0,8.809176445E0
5.129144270E-1,-1.356132269E0,4.636094093E0,8.927620888E0
5.153803650E-1,-1.457229018E0,4.638486862E0,9.050253868E0
5.178463020E-1,-1.519442320E0,4.599005222E0,9.150154114E0
5.203122400E-1,-1.570888042E0,4.554139614E0,9.202198029E0
5.227781770E-1,-1.603789330E0,4.511068821E0,9.264410973E0
5.252441150E-1,-1.640878081E0,4.471587181E0,9.278767586E0
5.277100520E-1,-1.682752490E0,4.432105541E0,9.273982048E0
5.301759900E-1,-1.733600020E0,4.392025948E0,9.250054359E0
5.326419270E-1,-1.771286964E0,4.386044025E0,9.192625999E0
5.351078650E-1,-1.803590059E0,4.365106583E0,9.116654396E0
5.375738020E-1,-1.841277003E0,4.354339123E0,9.040083885E0
5.400397400E-1,-1.855035782E0,4.353142738E0,8.954540253E0
5.425056770E-1,-1.864607096E0,4.366901398E0,8.887541771E0
5.449715630E-1,-1.859223247E0,4.371088982E0,8.778069496E0
5.474375000E-1,-1.868196249E0,4.384847641E0,8.682954788E0
5.499034380E-1,-1.888535261E0,4.436293125E0,8.592027664E0
5.523693750E-1,-1.878365755E0,4.445864677E0,8.515457153E0
5.548353130E-1,-1.869990945E0,4.483551502E0,8.434700012E0
5.573012500E-1,-1.861017823E0,4.521836758E0,8.376673698E0
5.597671880E-1,-1.818545222E0,4.555934429E0,8.328817368E0
5.622331250E-1,-1.786242127E0,4.595416069E0,8.291130066E0
5.646990630E-1,-1.764108539E0,4.657629490E0,8.266604424E0
5.671650000E-1,-1.735394597E0,4.672584534E0,8.233702660E0
5.696309380E-1,-1.717448473E0,4.711467743E0,8.219346046E0
5.720968750E-1,-1.699502230E0,4.755136967E0,8.199604988E0
5.745628130E-1,-1.733600020E0,4.777868748E0,8.175676346E0
5.770287500E-1,-1.772483349E0,4.804787636E0,8.151150703E0
5.794946880E-1,-1.816152334E0,4.832305431E0,8.127222061E0
5.819606250E-1,-1.815554142E0,4.812564373E0,8.103293419E0
5.844265110E-1,-1.829911113E0,4.807778835E0,8.079365730E0
5.868924480E-1,-1.843071699E0,4.783252239E0,8.065009117E0
5.893583860E-1,-1.802991867E0,4.731806755E0,8.037490845E0
5.918243230E-1,-1.739582062E0,4.676771641E0,8.066802979E0
5.942902610E-1,-1.694118381E0,4.610969067E0,8.072785378E0
5.967561980E-1,-1.601994753E0,4.566701889E0,8.106883049E0
5.992221360E-1,-1.509871125E0,4.517050743E0,8.160123825E0
6.016880730E-1,-1.427318692E0,4.462614059E0,8.237890244E0
6.041540110E-1,-1.344168067E0,4.399204254E0,8.334200859E0
6.066199480E-1,-1.287338614E0,4.387240410E0,8.435297966E0
6.090858860E-1,-1.225125194E0,4.356133461E0,8.564510345E0
6.115518230E-1,-1.158126116E0,4.325624943E0,8.703293800E0
6.140177610E-1,-1.100698471E0,4.299902439E0,8.851051331E0
6.164836980E-1,-1.086341500E0,4.277170658E0,8.965906143E0
6.189496360E-1,-1.091725349E0,4.263411522E0,9.089735031E0
6.214155730E-1,-1.110867858E0,4.234697819E0,9.203991890E0
6.238815110E-1,-1.129412293E0,4.201198578E0,9.313464165E0
6.263473960E-1,-1.152742267E0,4.158127785E0,9.408578873E0
6.288133340E-1,-1.195214868E0,4.122833252E0,9.480362892E0
6.312792710E-1,-1.232303619E0,4.074378967E0,9.537193298E0
6.337452090E-1,-1.246062398E0,4.040879250E0,9.566504478E0
6.362111460E-1,-1.283749342E0,4.015754700E0,9.590433121E0
6.386770840E-1,-1.316052437E0,3.990629911E0,9.566504478E0
6.411430210E-1,-1.338784218E0,3.956532240E0,9.547362328E0
6.436089590E-1,-1.347757339E0,3.932604074E0,9.523433685E0
6.460748960E-1,-1.390229940E0,3.926023722E0,9.498908043E0
6.485408340E-1,-1.384846091E0,3.916452408E0,9.427721024E0
6.510067710E-1,-1.412961721E0,3.920041800E0,9.365508080E0
6.534727090E-1,-1.432104349E0,3.933202267E0,9.279964447E0
6.559386460E-1,-1.475773335E0,3.964907169E0,9.212367058E0
6.584045840E-1,-1.471585870E0,4.016951084E0,9.098110199E0
6.608705210E-1,-1.463809252E0,4.088137627E0,9.021539688E0
6.633364070E-1,-1.460818172E0,4.164707661E0,8.949156761E0
6.658023440E-1,-1.447657704E0,4.222135544E0,8.891729355E0
6.682682820E-1,-1.435693622E0,4.303491592E0,8.815158844E0
6.707342190E-1,-1.456032634E0,4.364508629E0,8.738588333E0
6.732001570E-1,-1.480558991E0,4.392025948E0,8.657232285E0
6.756660940E-1,-1.513460279E0,4.390231133E0,8.533403397E0
6.781320320E-1,-1.517049551E0,4.380061626E0,8.428717613E0
6.805979690E-1,-1.515254974E0,4.345963955E0,8.309076309E0
6.830639070E-1,-1.512862086E0,4.283152580E0,8.214560509E0
6.855298440E-1,-1.484746456E0,4.207180500E0,8.100900650E0
6.879957820E-1,-1.462612867E0,4.125824451E0,8.016553879E0
6.904617190E-1,-1.426122308E0,4.036093712E0,7.965108395E0
6.929276570E-1,-1.404586911E0,3.964907169E0,7.936992645E0
6.953935940E-1,-1.373480201E0,3.894318819E0,7.928617954E0
6.978594790E-1,-1.333400369E0,3.842873096E0,7.924430370E0
7.003254690E-1,-1.307677627E0,3.777070522E0,7.963313580E0
7.027913540E-1,-1.264606714E0,3.754936934E0,8.030312538E0
7.052572920E-1,-1.220339537E0,3.708875179E0,8.073982239E0
7.077232290E-1,-1.192223907E0,3.710071564E0,8.154739380E0
7.101891670E-1,-1.186840057E0,3.677170277E0,8.240880966E0
7.126551040E-1,-1.158126116E0,3.645465374E0,8.346165657E0
7.151210420E-1,-1.162911773E0,3.626322746E0,8.456234932E0
7.175869790E-1,-1.157527924E0,3.589233875E0,8.551948547E0
7.200529170E-1,-1.157527924E0,3.561118364E0,8.637491226E0
7.225188540E-1,-1.165902853E0,3.513261795E0,8.718847275E0
7.249847920E-1,-1.198205948E0,3.455235958E0,8.785846710E0
7.274507290E-1,-1.255035520E0,3.430111170E0,8.833105087E0
7.299166670E-1,-1.316052437E0,3.376272678E0,8.889934540E0
7.323826040E-1,-1.392622828E0,3.364308596E0,8.956335068E0
7.348485420E-1,-1.488933921E0,3.371487141E0,9.026923180E0
7.373144270E-1,-1.596012712E0,3.392424345E0,9.087940216E0
7.397803650E-1,-1.697707653E0,3.413361549E0,9.153144836E0
7.422463020E-1,-1.823929071E0,3.452843189E0,9.227920532E0
7.447122400E-1,-1.974078655E0,3.515056372E0,9.288339615E0
7.471781770E-1,-2.163111687E0,3.581457376E0,9.333803177E0
7.496441150E-1,-2.337787628E0,3.647858143E0,9.398408890E0
7.521100520E-1,-2.528017044E0,3.747160196E0,9.429515839E0
7.545759900E-1,-2.714059114E0,3.856033802E0,9.455837250E0
7.570419270E-1,-2.871387243E0,3.990031719E0,9.486943245E0
7.595078650E-1,-3.043670416E0,4.141975880E0,9.484550476E0
7.619738020E-1,-3.166302681E0,4.244269371E0,9.521040916E0
7.644397400E-1,-3.275176048E0,4.341178417E0,9.567103386E0
7.669056770E-1,-3.348755360E0,4.405784607E0,9.571290970E0
7.693716150E-1,-3.388236761E0,4.442873478E0,9.575477600E0
7.718375000E-1,-3.373281717E0,4.419543266E0,9.589835167E0
7.743034900E-1,-3.324228764E0,4.377668858E0,9.585647583E0
7.767693750E-1,-3.308077335E0,4.316651821E0,9.595816612E0
7.792353130E-1,-3.272184849E0,4.241278172E0,9.605986595E0
7.817012500E-1,-3.212364435E0,4.166502476E0,9.616754532E0
7.841671880E-1,-3.090330362E0,4.083950043E0,9.589835167E0
7.866331250E-1,-2.919243574E0,3.988835335E0,9.544371605E0
7.890990630E-1,-2.715255499E0,3.903890133E0,9.479166985E0
7.915650000E-1,-2.454437733E0,3.854238987E0,9.415159225E0
7.940309380E-1,-2.184048891E0,3.795614958E0,9.317651749E0
7.964968750E-1,-1.874178290E0,3.704089403E0,9.197412491E0
7.989628130E-1,-1.613958836E0,3.663411379E0,9.052047729E0
8.014287500E-1,-1.372283816E0,3.641875982E0,8.916254997E0
8.038946880E-1,-1.121635556E0,3.610769272E0,8.794819832E0
8.063606250E-1,-8.769695163E-1,3.602992773E0,8.668000221E0
8.088128130E-1,-6.508477330E-1,3.585644722E0,8.541778564E0
8.112924480E-1,-4.247260094E-1,3.573082447E0,8.419744492E0
8.137583860E-1,-2.416750938E-1,3.568296671E0,8.325227737E0
8.162105730E-1,-9.272187948E-2,3.567698479E0,8.245666504E0
8.186902610E-1,-5.982056726E-3,3.565903902E0,8.207980156E0
8.211561980E-1,-1.076770201E-2,3.560520172E0,8.184649467E0
8.236221360E-1,-7.776673883E-2,3.563511133E0,8.164909363E0
8.260880730E-1,-1.842473447E-1,3.602992773E0,8.178069115E0
8.285540110E-1,-3.020938635E-1,3.690330744E0,8.248059273E0
8.310199480E-1,-4.642075896E-1,3.786043644E0,8.350353241E0
8.334858860E-1,-6.610172391E-1,3.905684710E0,8.562715530E0
8.359518230E-1,-9.296116233E-1,4.041477680E0,8.778668404E0
8.384177610E-1,-1.289731383E0,4.185046673E0,9.012566566E0
