"Time (s)","X (m/s^2)","Y (m/s^2)","Z (m/s^2)"
0.000000000E0,1.365610199E0,-1.224528580E1,4.392016754E0
1.001000000E-2,3.103047180E-1,-1.424991714E1,4.676275635E0
1.999000000E-2,-5.016069031E-1,-1.638687332E1,3.665727081E0
2.999900000E-2,-1.319356384E0,-1.617341721E1,8.238867188E-1
3.997900000E-2,-2.086960144E0,-1.354802673E1,-2.781964874E0
4.995800000E-2,-2.912792816E0,-1.137170242E1,-5.027744751E0
5.993700000E-2,-3.109783173E0,-1.023421783E1,-4.920417938E0
6.991600000E-2,-2.273322601E0,-9.919272766E0,-3.558999023E0
7.989600000E-2,-1.158890076E0,-1.017254608E1,-2.358645172E0
8.990500000E-2,-1.736389160E-2,-9.942175140E0,-9.214837646E-1
9.988500000E-2,8.330177307E-1,-8.932973785E0,1.456471252E-1
1.098640000E-1,1.419049072E0,-7.816295929E0,6.644682312E-1
1.198572917E-1,1.719174957E0,-6.803502045E0,7.762857056E-1
1.298362917E-1,1.881287842E0,-5.939798126E0,5.722599792E-1
1.398162917E-1,2.068249054E0,-5.415737915E0,2.139051819E-1
1.498252917E-1,2.080373840E0,-5.257217560E0,-2.480342102E-1
1.598052917E-1,1.975891113E0,-5.377267914E0,-6.137237549E-1
1.697842917E-1,1.777553558E0,-5.759872284E0,-7.665559387E-1
1.797632917E-1,1.556762695E0,-6.325246582E0,-5.183720398E-1
1.897422917E-1,1.571731567E0,-6.813680878E0,-1.282832336E-1
1.997222917E-1,1.644779663E0,-7.013215942E0,1.448986816E-1
2.097312917E-1,1.623374176E0,-6.728657684E0,2.038760376E-1
2.197112917E-1,1.398541718E0,-6.100264435E0,1.242416382E-2
2.296902917E-1,9.990225220E-1,-5.386249237E0,-2.392025757E-1
2.396692917E-1,6.069877625E-1,-4.810396729E0,-3.933819580E-1
2.496482917E-1,3.204835510E-1,-4.512366486E0,-5.872288513E-1
2.596582917E-1,7.738906860E-2,-4.420457611E0,-8.672964478E-1
2.696372917E-1,-2.433938599E-1,-4.549339600E0,-1.233285370E0
2.796172917E-1,-7.954458618E-1,-4.968617706E0,-1.685494995E0
2.895962917E-1,-1.486708374E0,-5.828130341E0,-2.311343536E0
2.995752917E-1,-2.258353729E0,-7.147337036E0,-3.297792206E0
3.095542917E-1,-3.198847961E0,-8.652457123E0,-4.703219604E0
3.195642917E-1,-4.268822937E0,-1.031804352E1,-6.124514008E0
3.295432917E-1,-5.321434021E0,-1.245320343E1,-7.277865601E0
3.395232917E-1,-6.367907867E0,-1.479957413E1,-7.779023438E0
3.495022917E-1,-7.201374664E0,-1.621113876E1,-7.980803833E0
3.594812917E-1,-6.342460785E0,-1.474688370E1,-8.207432556E0
3.694602917E-1,-4.202660522E0,-1.210218338E1,-7.536976776E0
3.794702917E-1,-2.535427551E0,-1.033331177E1,-6.088139648E0
3.894492917E-1,-1.720971222E0,-8.776848450E0,-5.127886505E0
3.994292917E-1,-1.133293304E0,-8.209079132E0,-4.952002258E0
4.094082917E-1,-1.252744904E0,-9.731114044E0,-4.764741669E0
4.193872917E-1,-2.469265137E0,-1.252131180E1,-3.406915283E0
4.293662917E-1,-3.714675293E0,-1.480032257E1,-1.835632782E0
4.393762917E-1,-4.195625153E0,-1.660556854E1,-1.250200195E0
4.493552917E-1,-4.039050751E0,-1.903426804E1,-7.511380005E-1
4.593352917E-1,-3.650458832E0,-2.077829132E1,-7.277865601E-1
4.693142917E-1,-2.791395264E0,-1.895583115E1,-2.827470245E0
4.792932917E-1,-4.763095093E-1,-1.389066422E1,-3.499422913E0
4.893032917E-1,3.002755737E0,-6.557713165E0,2.023941193E0
4.992822917E-1,6.596781921E0,-9.418414307E-1,4.238286438E0
5.092612917E-1,8.389154663E0,-2.245330811E-2,2.611768799E0
5.192412917E-1,9.129664764E0,-6.987469482E-1,1.720222778E0
5.292202917E-1,8.571325836E0,-1.410666504E0,1.462907867E0
5.391992917E-1,5.385500793E0,-3.705095215E0,2.624043274E0
5.492092917E-1,1.803000641E0,-8.105045471E0,4.928950195E0
5.591882917E-1,-1.545386353E0,-1.630424515E1,4.903203735E0
5.691672917E-1,-4.241429901E0,-2.223221786E1,2.942431183E0
5.791472917E-1,-4.089795227E0,-1.887245453E1,7.934999084E-1
5.891262917E-1,-1.780247955E0,-1.196985855E1,-1.339714050E0
5.991052917E-1,4.370910645E-2,-8.584199066E0,-2.143692169E0
6.091152917E-1,1.193767548E0,-8.188721466E0,-1.344953156E0
6.190942917E-1,2.014361115E0,-8.411158905E0,1.528321838E-1
6.290732917E-1,2.652334442E0,-8.430618439E0,1.457219696E0
6.390532917E-1,2.760409698E0,-8.160130920E0,2.197131042E0
6.490322917E-1,1.824705505E0,-7.644752655E0,2.658621368E0
6.590112917E-1,1.246907043E-1,-7.678731995E0,2.777324524E0
6.690212917E-1,-1.564995575E0,-8.707243195E0,2.460134125E0
6.790002917E-1,-2.693199463E0,-9.928104401E0,1.870809631E0
6.889792917E-1,-3.266656952E0,-1.058344162E1,1.300495605E0
6.989592917E-1,-3.478167114E0,-1.043689636E1,9.398954773E-1
7.089382917E-1,-3.280128937E0,-9.990374908E0,6.424639893E-1
7.189482917E-1,-2.840493164E0,-9.788744202E0,5.099894714E-1
7.289272917E-1,-2.320773926E0,-9.847272491E0,5.384303284E-1
7.389062917E-1,-1.976340179E0,-9.947563934E0,7.180567932E-1
7.488852917E-1,-1.729952545E0,-9.968370667E0,7.216493225E-1
7.588652917E-1,-1.577719116E0,-9.757608948E0,2.811154175E-1
7.688442917E-1,-1.420096893E0,-9.386829987E0,-8.038284302E-2
7.788542917E-1,-1.278790741E0,-8.912316742E0,3.742218018E-3
7.888332917E-1,-1.154249725E0,-8.609496460E0,5.156776428E-1
7.988122917E-1,-1.042432251E0,-8.381819916E0,1.101559296E0
8.087912917E-1,-1.088985443E0,-8.227790222E0,1.250798950E0
8.187712917E-1,-1.096619568E0,-8.423283691E0,8.527766418E-1
8.287502917E-1,-8.619076538E-1,-8.884474640E0,3.183879089E-1
8.387602917E-1,-4.953199768E-1,-9.303303680E0,1.017883301E-2
8.487392917E-1,-1.399589539E-1,-9.425150299E0,-8.158035278E-2
8.587182917E-1,5.403762817E-2,-9.370962982E0,-2.655477905E-1
8.686972917E-1,2.558180237E-1,-9.275611267E0,-3.562591553E-1
8.786772917E-1,1.353186035E-1,-8.881929932E0,6.526428223E-2
8.886562917E-1,-8.342152405E-1,-8.286168823E0,7.839198303E-1
8.986662917E-1,-2.080074463E0,-8.031847687E0,1.554068298E0
9.086452917E-1,-2.709964600E0,-8.252638550E0,1.970053253E0
9.186242917E-1,-2.403851166E0,-8.980125732E0,1.588945770E0
9.286032917E-1,-1.625918884E0,-9.962233429E0,8.939410400E-1
9.385832917E-1,-1.016835480E0,-1.049766998E1,7.836204529E-1
9.485922917E-1,-6.242019653E-1,-1.044632675E1,9.979747009E-1
9.585722917E-1,-4.305047607E-1,-1.044273422E1,8.888516235E-1
9.685512917E-1,-4.845423889E-1,-1.064152084E1,4.435276794E-1
9.785302917E-1,-7.355703735E-1,-1.070588699E1,-1.499880981E-1
9.885092917E-1,-1.374292145E0,-1.107636658E1,-1.012494507E0
9.984892917E-1,-2.264191589E0,-1.156779465E1,-1.678759003E0
1.008498292E0,-3.367696838E0,-1.202030365E1,-1.584604797E0
1.018478292E0,-4.411775665E0,-1.293804520E1,-1.066083069E0
1.028457292E0,-4.781207428E0,-1.395098877E1,-6.089337158E-1
1.038436292E0,-4.571194153E0,-1.451381836E1,-4.071533203E-1
1.048415292E0,-4.498146057E0,-1.427222076E1,-4.884342957E-1
1.058395292E0,-4.758005676E0,-1.409124710E1,-8.601113892E-1
1.068404292E0,-4.373904419E0,-1.476858856E1,-1.232387238E0
1.078384292E0,-2.275867310E0,-1.552706131E1,-1.693278809E0
1.088363292E0,9.454339600E-1,-1.483819382E1,-2.675835571E0
1.098342292E0,3.271446991E0,-1.337932755E1,-3.350332947E0
1.108321292E0,4.508175201E0,-1.224618393E1,-2.716850281E0
1.118289167E0,4.856949921E0,-1.132335297E1,-1.745071106E0
1.128298167E0,4.659809875E0,-1.084330124E1,-7.682025146E-1
1.138278167E0,4.321663055E0,-1.120375168E1,2.082170105E-1
1.148257167E0,3.712579651E0,-1.181448166E1,1.045875092E0
1.158236167E0,2.407743073E0,-1.283580780E1,1.564396820E0
1.168215167E0,5.755531311E-1,-1.407882294E1,1.661245422E0
1.178225167E0,-1.165027313E0,-1.429751816E1,1.398990784E0
1.188204167E0,-2.526595917E0,-1.285017792E1,2.466870117E-1
1.198184167E0,-3.933520203E0,-1.114836685E1,-1.338666229E0
1.208163167E0,-4.725074158E0,-1.039782761E1,-2.358495483E0
1.218142167E0,-4.223167877E0,-9.976453857E0,-2.439926147E0
1.228121167E0,-2.990780640E0,-9.820478210E0,-2.086062012E0
1.238131167E0,-1.735041962E0,-9.560917969E0,-1.718725891E0
1.248110167E0,-8.313711548E-1,-8.737480316E0,-1.088686066E0
1.258090167E0,-2.770738220E-1,-7.645950165E0,-4.050576782E-1
1.268069167E0,4.308041382E-1,-6.537056122E0,7.963439941E-2
1.278048167E0,1.066681824E0,-5.604196014E0,1.908531189E-1
1.288027167E0,1.463656311E0,-5.116210785E0,2.538720703E-1
1.298037167E0,1.716480560E0,-4.894521790E0,1.811233521E-1
1.308016167E0,1.833986206E0,-4.910688171E0,3.008743286E-2
1.317996167E0,1.853296051E0,-5.147495728E0,-1.002914429E-2
1.327975167E0,1.748364258E0,-5.609285431E0,7.349716187E-2
1.337954167E0,1.656605072E0,-6.086493073E0,1.749861145E-1
1.347933167E0,1.607357483E0,-6.238127747E0,1.206491089E-1
1.357943167E0,1.553170166E0,-5.896837463E0,-1.272354126E-1
1.367922167E0,1.459914093E0,-5.200335846E0,-5.451663208E-1
1.377902167E0,1.323248291E0,-4.581522675E0,-1.006956024E0
1.387881167E0,1.124311981E0,-4.267625427E0,-1.265468445E0
1.397860167E0,7.822732544E-1,-4.167483673E0,-1.502425690E0
1.407870167E0,4.498146057E-1,-4.298311615E0,-1.789079590E0
1.417849167E0,3.397933960E-2,-4.792134705E0,-2.099683685E0
1.427828167E0,-3.016227722E-1,-5.898484039E0,-2.312690735E0
1.437808167E0,-9.219328308E-1,-7.647297363E0,-2.925516357E0
1.447787167E0,-2.217488708E0,-9.877808990E0,-4.156257019E0
1.457766167E0,-3.971391449E0,-1.240171051E1,-5.899082794E0
1.467776167E0,-5.799539795E0,-1.553364761E1,-7.694000244E0
1.477755167E0,-8.650960236E0,-1.892888718E1,-8.361312561E0
1.487734167E0,-1.078477295E1,-1.797342407E1,-8.979227600E0
1.497714167E0,-7.640261993E0,-1.332528992E1,-9.322613525E0
1.507693167E0,-3.851341095E0,-1.034663406E1,-8.478668518E0
1.517672167E0,-1.821262665E0,-8.785380707E0,-7.243287506E0
1.527682167E0,-2.881507874E-1,-7.845784607E0,-5.453010406E0
1.537661167E0,8.702902222E-1,-8.341104584E0,-3.460503845E0
1.547640167E0,9.687854004E-1,-1.057775345E1,-1.553918610E0
1.557620167E0,-5.950126648E-1,-1.281185760E1,-7.458988953E-1
1.567599167E0,-1.971400452E0,-1.380743729E1,-1.395997009E0
1.577609167E0,-2.857857056E0,-1.428778839E1,-2.562670898E0
1.587588167E0,-3.801794128E0,-1.534084854E1,-3.333567810E0
1.597567167E0,-5.087171173E0,-1.647489029E1,-2.756218414E0
1.607546167E0,-5.283712463E0,-1.651590500E1,-2.854114838E0
1.617526167E0,-2.831212463E0,-1.428165115E1,-1.557211761E0
1.627505167E0,7.753875732E-2,-9.074729004E0,4.220922546E0
1.637515167E0,2.893782349E0,-4.394561462E0,6.542893982E0
1.647494167E0,5.916596375E0,-2.965183868E0,2.732118530E0
1.657473167E0,8.320297852E0,-3.293750610E0,-1.219214630E0
1.667452167E0,9.427395630E0,-4.013304291E0,-1.701362000E0
1.677432167E0,7.035070496E0,-5.436694336E0,5.239105225E-3
1.687411167E0,2.989433441E0,-8.595276031E0,2.570005646E0
1.697421167E0,-3.698808289E-1,-1.395338379E1,4.264931030E0
1.707400167E0,-2.571053467E0,-1.806159073E1,4.183200989E0
1.717379167E0,-2.446811829E0,-1.644345566E1,1.897753601E0
1.727358167E0,-7.987390137E-1,-1.176882660E1,-4.367916870E-1
1.737338167E0,3.830534363E-1,-8.779093781E0,-1.489851837E0
1.747317167E0,1.131646729E0,-8.158933411E0,-1.194965057E0
1.757327167E0,1.700613556E0,-8.669970703E0,2.380050659E-2
1.767306167E0,1.835333405E0,-9.179062042E0,1.444346466E0
1.777285167E0,1.438358917E0,-9.044192505E0,2.432741089E0
1.787264167E0,2.691403198E-1,-8.512647858E0,2.874921570E0
1.797244167E0,-1.156195679E0,-8.360264740E0,2.964136047E0
1.807253167E0,-2.234553223E0,-8.713530121E0,2.233056335E0
1.817233167E0,-2.743644562E0,-9.361532593E0,1.105002136E0
1.827212167E0,-2.560724945E0,-9.766739960E0,5.843847656E-1
1.837191167E0,-2.495909729E0,-9.859996033E0,4.174818420E-1
1.847170167E0,-2.243684235E0,-9.860594788E0,3.595523071E-1
1.857150167E0,-1.905687103E0,-9.733059998E0,3.345542908E-1
1.867159167E0,-1.569785614E0,-9.612111511E0,7.544311523E-1
1.877139167E0,-1.422940979E0,-9.525741119E0,1.129551086E0
1.887118167E0,-1.541195068E0,-9.513466644E0,1.021924896E0
1.897097167E0,-1.617087250E0,-9.231303406E0,6.384223938E-1
1.907076167E0,-1.536704407E0,-8.814420319E0,2.679428101E-1
1.917056167E0,-1.396745453E0,-8.396938477E0,2.333647156E-1
1.927065167E0,-1.213077393E0,-8.106093292E0,6.282435608E-1
1.937045167E0,-1.109492798E0,-8.228987732E0,9.418414307E-1
1.947024167E0,-1.018482056E0,-8.580756226E0,9.629475403E-1
1.957003167E0,-9.318122864E-1,-8.841364288E0,8.786727905E-1
1.966982167E0,-9.621990967E-1,-9.084009705E0,7.590715027E-1
1.976962167E0,-8.909472656E-1,-9.441765747E0,5.210664368E-1
1.986971167E0,-6.248007202E-1,-9.897867279E0,1.389111328E-1
1.996951167E0,-3.320095825E-1,-1.017568954E1,-8.801696777E-2
2.006930167E0,-2.628533936E-1,-1.027433441E1,1.383123779E-1
2.016909167E0,-4.441264343E-1,-9.956245880E0,5.167254639E-1
2.026888167E0,-9.750723267E-1,-9.501341858E0,8.611592102E-1
2.036898167E0,-1.794767761E0,-9.274713135E0,1.116677856E0
2.046877167E0,-2.487826538E0,-9.096733246E0,1.566941528E0
2.056857167E0,-2.541864166E0,-9.057215424E0,1.669777679E0
2.066836167E0,-2.006277924E0,-9.315129089E0,1.489402771E0
2.076815167E0,-1.458267517E0,-9.833201752E0,1.460213470E0
2.086794167E0,-1.063388672E0,-1.005084915E1,1.331481171E0
2.096804167E0,-7.207511902E-1,-1.006746460E1,9.848020935E-1
2.106783167E0,-3.411405945E-1,-1.035576508E1,6.408174133E-1
2.116751417E0,-2.631527710E-1,-1.053823563E1,3.323089600E-1
2.126730417E0,-7.890092468E-1,-1.075543396E1,-3.397933960E-2
2.136709417E0,-1.443448334E0,-1.155686737E1,-2.715353394E-1
2.146688417E0,-1.679208069E0,-1.278356644E1,-2.908451843E-1
2.156698417E0,-1.709744568E0,-1.371433090E1,-5.104385376E-2
2.166678417E0,-2.078876953E0,-1.355461304E1,2.655477905E-1
2.176657417E0,-2.663710785E0,-1.298564621E1,1.883084106E-1
2.186636417E0,-2.651136932E0,-1.365685043E1,-3.433859253E-1
2.196615417E0,-1.269959106E0,-1.489896744E1,-1.185085602E0
2.206625417E0,8.643026733E-1,-1.472847198E1,-2.102527771E0
2.216604417E0,2.325264587E0,-1.358395203E1,-2.906206512E0
2.226584417E0,3.141367493E0,-1.283041901E1,-2.781216431E0
2.236563417E0,3.528163147E0,-1.225845840E1,-1.962269440E0
2.246542417E0,3.287463684E0,-1.169592819E1,-1.128503265E0
2.256521417E0,2.708168335E0,-1.184426971E1,-4.011657715E-1
2.266531417E0,2.025587769E0,-1.302306839E1,1.291813660E-1
2.276510417E0,1.470242615E0,-1.459614716E1,2.085163879E-1
2.286490417E0,6.590794373E-1,-1.528172150E1,-2.242337036E-1
2.296469417E0,-8.108638000E-1,-1.400831955E1,-8.155041504E-1
2.306448417E0,-2.600991211E0,-1.109926895E1,-1.685644684E0
2.316427417E0,-3.419189758E0,-8.973838806E0,-2.109712830E0
2.326437417E0,-3.327131195E0,-8.357121277E0,-1.884281616E0
2.336416417E0,-2.938988342E0,-8.465196533E0,-1.218017120E0
2.346396417E0,-1.886526947E0,-8.691974945E0,-5.102888489E-1
2.356375417E0,-7.685018921E-1,-8.671916656E0,-2.408491516E-1
2.366354417E0,-1.362167358E-2,-8.176297302E0,-1.796264648E-2
2.376333417E0,3.261717224E-1,-7.369475098E0,1.908531189E-1
2.386343417E0,4.631369019E-1,-6.588549042E0,2.348616028E-1
2.396322417E0,6.583309937E-1,-6.038742371E0,-1.712438965E-1
2.406302417E0,9.777667236E-1,-5.801785126E0,-7.711962891E-1
2.416281417E0,1.375639343E0,-5.831273804E0,-1.175206146E0
2.426260417E0,1.537901917E0,-6.162235565E0,-1.282682648E0
2.436270417E0,1.431922302E0,-6.529721375E0,-9.527687073E-1
2.446249417E0,9.148974609E-1,-6.779551849E0,-2.749781799E-1
2.456228417E0,2.243833923E-1,-6.834487610E0,2.070195007E-1
2.466208417E0,-4.647834778E-1,-6.649622040E0,1.577719116E-1
2.476187417E0,-9.575587463E-1,-6.285130005E0,-1.026864624E-1
2.486166417E0,-1.091979218E0,-5.934259644E0,-4.243675232E-1
2.496176417E0,-9.848020935E-1,-5.698799286E0,-9.434880066E-1
2.506155417E0,-8.385562134E-1,-5.500312042E0,-1.268013153E0
2.516134417E0,-8.601113892E-1,-5.167554016E0,-1.349294128E0
2.526114417E0,-1.126407623E0,-5.127587128E0,-1.282532959E0
2.536093417E0,-1.494492188E0,-5.396128693E0,-1.383123779E0
2.546072417E0,-1.927391968E0,-6.202501831E0,-2.140099640E0
2.556082417E0,-2.578088837E0,-7.361840973E0,-3.558100891E0
2.566061417E0,-3.556753693E0,-8.754395142E0,-5.114115143E0
2.576040417E0,-4.792883148E0,-1.038151154E1,-6.291865997E0
2.586020417E0,-5.655688934E0,-1.247880020E1,-6.907086639E0
2.595999417E0,-6.089935913E0,-1.487307129E1,-7.054530029E0
2.605978417E0,-6.211333466E0,-1.605636063E1,-7.052135010E0
2.615988417E0,-5.596412201E0,-1.440095306E1,-7.070546722E0
2.625967417E0,-4.371958466E0,-1.161524597E1,-6.609954529E0
2.635946417E0,-3.113525391E0,-9.865085449E0,-5.867498474E0
2.645926417E0,-2.167642365E0,-9.114097137E0,-5.515430603E0
2.655905417E0,-1.800455933E0,-8.853339386E0,-5.341941376E0
2.665915417E0,-1.542691956E0,-9.905800781E0,-4.319717102E0
2.675894417E0,-1.668430481E0,-1.285272263E1,-2.071392517E0
2.685873417E0,-2.680625610E0,-1.497291367E1,3.005749512E-1
2.695852417E0,-2.999462585E0,-1.539758057E1,1.050216064E0
2.705832417E0,-2.759810944E0,-1.584320389E1,1.570234680E-1
2.715811417E0,-2.701132965E0,-1.605261841E1,-3.764671326E-1
2.725821417E0,-2.900967407E0,-1.520822433E1,-1.712139587E0
2.735800417E0,-1.502425690E0,-1.318937256E1,-7.619155884E-1
2.745779417E0,2.119592285E0,-8.634793854E0,2.923121338E0
2.755758417E0,5.907615051E0,-4.220323792E0,3.069217529E0
2.765738417E0,7.885003052E0,-3.452420654E0,2.787353668E0
2.775717417E0,8.840466156E0,-3.687731323E0,2.037413177E0
2.785727417E0,8.904981995E0,-3.981570282E0,1.495689697E0
2.795706417E0,6.571783905E0,-5.779631195E0,2.769391022E0
2.805685417E0,3.422333221E0,-9.821076965E0,4.021088104E0
2.815664417E0,8.942404175E-1,-1.574126587E1,3.252137146E0
2.825644417E0,-1.132694550E0,-1.890897858E1,2.285597076E0
2.835653417E0,-2.055525513E0,-1.693712906E1,1.458117828E0
2.845633417E0,-1.093176727E0,-1.275302994E1,3.617976379E-1
2.855612417E0,3.150947571E-1,-9.657317505E0,-6.280938721E-1
2.865591417E0,8.963360596E-1,-8.537496185E0,-5.736071777E-1
2.875570417E0,1.360371094E0,-8.245752869E0,7.460485840E-1
2.885550417E0,1.379531250E0,-7.899522858E0,1.793869629E0
2.895559417E0,7.083270264E-1,-7.739954681E0,2.515369263E0
2.905539417E0,-6.532415771E-1,-7.989785156E0,3.041225739E0
2.915518417E0,-2.203567657E0,-8.582402802E0,3.304677887E0
2.925497417E0,-3.596720581E0,-9.304501190E0,3.010240173E0
2.935476417E0,-4.410278778E0,-9.947114868E0,1.942061462E0
2.945456417E0,-4.351301422E0,-1.034663406E1,8.903485107E-1
2.955465417E0,-4.076173553E0,-1.027747787E1,2.993774414E-1
2.965445417E0,-3.523822174E0,-9.919572144E0,9.131011963E-3
2.975424417E0,-2.737657013E0,-9.582622833E0,-1.872605896E-1
2.985403417E0,-1.973496094E0,-9.332792358E0,6.137237549E-2
2.995382417E0,-1.430575104E0,-9.049281921E0,6.084846497E-1
3.005362417E0,-1.215771790E0,-8.814719696E0,8.093669128E-1
3.015371417E0,-1.091230774E0,-8.787476349E0,6.116281128E-1
3.025351417E0,-9.958790588E-1,-8.677006073E0,5.153782654E-1
3.035330417E0,-1.069974976E0,-8.601712646E0,3.206332397E-1
3.045309417E0,-1.047521667E0,-8.581504669E0,-3.338058472E-2
3.055288417E0,-9.050180054E-1,-8.791068878E0,-4.580474854E-2
3.065298417E0,-9.654922485E-1,-9.227860565E0,1.471440125E-1
3.075277417E0,-1.140628052E0,-9.544901276E0,1.758842468E-1
3.085257417E0,-1.137484589E0,-9.762099609E0,2.125579834E-2
3.095236417E0,-8.831634521E-1,-9.965975647E0,-1.374142456E-1
3.105215417E0,-5.915698242E-1,-1.018197647E1,-1.086740112E-1
3.115199792E0,-4.569996643E-1,-9.945318604E0,-2.939886475E-1
3.125209792E0,-7.520361328E-1,-9.224417725E0,-1.727407837E-1
3.135188792E0,-1.819765778E0,-8.577163696E0,4.927752686E-1
3.145168792E0,-3.337759094E0,-8.373886414E0,1.099463654E0
3.155147792E0,-4.532125397E0,-8.384664001E0,1.250948639E0
3.165126792E0,-4.779411163E0,-8.576415253E0,1.110241241E0
3.175105792E0,-3.909869385E0,-9.306447144E0,9.868977356E-1
3.185115792E0,-2.647095337E0,-1.002435425E1,7.394622803E-1
3.195094792E0,-1.723515930E0,-1.010548553E1,3.320095825E-1
3.205074792E0,-1.044976959E0,-1.006596771E1,2.409988403E-1
3.215053792E0,-3.953279114E-1,-1.009635452E1,1.419049072E-1
3.225032792E0,2.222877502E-1,-1.004516098E1,-4.369413757E-1
3.235011792E0,7.927514648E-1,-9.847272491E0,-9.547146606E-1
3.245021792E0,6.771917725E-1,-9.976753235E0,-1.069376221E0
3.255000792E0,-4.656816101E-1,-1.022987686E1,-9.116043091E-1
3.264980792E0,-1.906435547E0,-1.038196060E1,-4.023632813E-1
3.274959792E0,-2.960244141E0,-1.098939743E1,-2.020797729E-2
3.284938792E0,-3.437002716E0,-1.217358490E1,-1.278341675E-1
3.294948792E0,-3.400628357E0,-1.324176361E1,-2.270777893E-1
3.304927792E0,-3.196003876E0,-1.349413879E1,-2.242337036E-1
3.314906792E0,-3.037782898E0,-1.365984421E1,-4.328997803E-1
3.324886792E0,-2.462379456E0,-1.477517487E1,-8.613088989E-1
3.334865792E0,-3.260220337E-1,-1.610006973E1,-1.517843628E0
3.344844792E0,2.393223267E0,-1.602762039E1,-2.262395325E0
