"Time (s)","Acceleration x (m/s^2)","Acceleration y (m/s^2)","Acceleration z (m/s^2)"
0.000000000E0,-2.993154287E0,2.943230391E0,1.011399937E1
1.776562000E-3,-3.032448053E0,3.012432337E0,1.006546307E1
3.764062000E-3,-3.084574461E0,3.068792105E0,9.974771500E0
5.764062000E-3,-3.119654179E0,3.095923185E0,9.860232353E0
7.764062000E-3,-3.133550406E0,3.084191322E0,9.749639511E0
9.764062000E-3,-3.118505239E0,3.042321682E0,9.652673721E0
1.176562500E-2,-3.093969584E0,2.976845026E0,9.575983047E0
1.394843700E-2,-3.075639486E0,2.921328306E0,9.526710510E0
1.561406200E-2,-3.035809278E0,2.867267370E0,9.486506462E0
1.776562500E-2,-3.025475979E0,2.821691275E0,9.485003471E0
1.976562500E-2,-3.009616852E0,2.742107868E0,9.503342628E0
2.176562500E-2,-2.991123915E0,2.683909655E0,9.540807724E0
2.376562500E-2,-2.965333700E0,2.637605667E0,9.592082024E0
2.576406200E-2,-2.952893496E0,2.606040716E0,9.639055252E0
2.776562500E-2,-2.952337980E0,2.587088108E0,9.667298317E0
2.976562500E-2,-2.971309662E0,2.592748165E0,9.654024124E0
3.176562500E-2,-3.010919333E0,2.600926876E0,9.596802711E0
3.376562500E-2,-3.054522514E0,2.597622633E0,9.520208359E0
3.576562500E-2,-3.106754303E0,2.588869333E0,9.440059662E0
3.776562500E-2,-3.152071714E0,2.570022106E0,9.345430374E0
3.994687500E-2,-3.205826521E0,2.536244869E0,9.251023293E0
4.211875000E-2,-3.255424738E0,2.473813772E0,9.170367241E0
4.376562500E-2,-3.287631512E0,2.403874159E0,9.102505684E0
4.576406200E-2,-3.335132599E0,2.346250772E0,9.029712677E0
4.776562500E-2,-3.377452374E0,2.293080091E0,8.976053238E0
4.976562500E-2,-3.387546301E0,2.228360176E0,8.974023819E0
5.176562500E-2,-3.354879856E0,2.145874977E0,9.000043869E0
5.376562500E-2,-3.314552069E0,2.079172611E0,9.047333717E0
5.576562500E-2,-3.273046255E0,2.031288624E0,9.100389481E0
5.776562500E-2,-3.254850149E0,1.973961830E0,9.154930115E0
5.976562500E-2,-3.244689226E0,1.946514726E0,9.166526794E0
6.176562500E-2,-3.246441603E0,1.948985457E0,9.135995865E0
6.376562500E-2,-3.236807346E0,1.936832547E0,9.080278397E0
6.576562500E-2,-3.210959673E0,1.895365000E0,9.007130623E0
6.776562500E-2,-3.166322231E0,1.802508354E0,8.945158958E0
6.976562500E-2,-3.246451378E0,1.819985986E0,8.886203766E0
7.176562500E-2,-3.358930826E0,1.946342230E0,8.814856529E0
7.376562500E-2,-3.335917711E0,1.997520804E0,8.769701958E0
7.576562500E-2,-3.215508461E0,1.964816093E0,8.763965607E0
7.776562500E-2,-3.079805374E0,1.880080462E0,8.809292793E0
7.994531200E-2,-2.962767124E0,1.805227995E0,8.908709526E0
8.176562500E-2,-2.893938780E0,1.772408366E0,9.029942513E0
8.376562500E-2,-2.846284389E0,1.785949945E0,9.122607231E0
8.576562500E-2,-2.800507307E0,1.830271482E0,9.171918869E0
8.776562500E-2,-2.764383554E0,1.890787244E0,9.187748909E0
8.976562500E-2,-2.740671396E0,1.958907127E0,9.199988365E0
9.176562500E-2,-2.723413944E0,2.005967617E0,9.217647552E0
9.376562500E-2,-2.712984800E0,2.041688919E0,9.249442101E0
9.576562500E-2,-2.717811584E0,2.090406179E0,9.297489166E0
9.776562500E-2,-2.717773199E0,2.140301466E0,9.332004547E0
9.976562500E-2,-2.719947338E0,2.205155611E0,9.370465279E0
1.017656250E-1,-2.729753971E0,2.289594173E0,9.414317131E0
1.037656250E-1,-2.749079943E0,2.361037016E0,9.439476013E0
1.057656250E-1,-2.772207737E0,2.436339617E0,9.431076050E0
1.077656250E-1,-2.801388502E0,2.510176659E0,9.405889511E0
1.097656250E-1,-2.837569475E0,2.568231344E0,9.353015900E0
1.117656250E-1,-2.851120949E0,2.613366842E0,9.298054695E0
1.137656250E-1,-2.840701103E0,2.647412300E0,9.227847099E0
1.157656250E-1,-2.803638935E0,2.664334774E0,9.152257919E0
1.177656250E-1,-2.761309385E0,2.688094616E0,9.078869820E0
1.199453120E-1,-2.717054844E0,2.706606627E0,9.016506195E0
1.221187500E-1,-2.672982693E0,2.723825932E0,8.972290039E0
1.237656250E-1,-2.647239923E0,2.752316952E0,8.941538811E0
1.257640620E-1,-2.627329826E0,2.786180496E0,8.915020943E0
1.277656250E-1,-2.615904808E0,2.814355373E0,8.878888130E0
1.297656250E-1,-2.626927853E0,2.838594198E0,8.823572159E0
1.317656250E-1,-2.646493196E0,2.859385490E0,8.737466812E0
1.337656250E-1,-2.677780628E0,2.872017384E0,8.627764702E0
1.357656250E-1,-2.706443787E0,2.866721392E0,8.496045113E0
1.377656250E-1,-2.725856304E0,2.848037004E0,8.357086182E0
1.397656250E-1,-2.743180513E0,2.827772379E0,8.222148895E0
1.417656250E-1,-2.765963793E0,2.799693346E0,8.095169067E0
1.437656250E-1,-2.782014370E0,2.772370577E0,7.999401569E0
1.457640620E-1,-2.788373470E0,2.734254837E0,7.923294544E0
1.477656250E-1,-2.778959513E0,2.689847469E0,7.855481148E0
1.497656250E-1,-2.752038956E0,2.646282434E0,7.812892914E0
1.517656250E-1,-2.695756197E0,2.585412025E0,7.788577557E0
1.537656250E-1,-2.605466127E0,2.525921106E0,7.775936127E0
1.557656250E-1,-2.480536699E0,2.462101221E0,7.795932770E0
1.577656250E-1,-2.347984076E0,2.393330336E0,7.840196609E0
1.599453120E-1,-2.252254248E0,2.333360434E0,7.896201611E0
1.617656250E-1,-2.224031448E0,2.308968067E0,7.948730469E0
1.637656250E-1,-2.251938343E0,2.290053844E0,7.994172573E0
1.657656250E-1,-2.300463915E0,2.249141932E0,8.049267769E0
1.677656250E-1,-2.343770266E0,2.183004379E0,8.113451958E0
1.697656250E-1,-2.363737822E0,2.065947056E0,8.213404655E0
1.717656250E-1,-2.338790178E0,1.906924248E0,8.383545876E0
1.737656250E-1,-2.306870937E0,1.752660990E0,8.631690025E0
1.757656250E-1,-2.296748161E0,1.656433225E0,8.950042725E0
1.777656250E-1,-2.357465029E0,1.626429081E0,9.304261208E0
1.799468750E-1,-2.492392540E0,1.671899796E0,9.636719704E0
1.821281250E-1,-2.680825949E0,1.788411260E0,9.901124954E0
1.837656250E-1,-2.871528864E0,1.927705765E0,1.009311104E1
1.857656250E-1,-3.052281380E0,2.067632675E0,1.018807507E1
1.877656250E-1,-3.220316172E0,2.201200247E0,1.019810295E1
1.897656250E-1,-3.354056358E0,2.364963531E0,1.012554741E1
1.917656250E-1,-3.409448385E0,2.596875668E0,9.942008972E0
1.937656250E-1,-3.353079557E0,2.907863379E0,9.642216682E0
1.957656250E-1,-3.180275679E0,3.290456772E0,9.328921318E0
1.977656250E-1,-2.973234653E0,3.660648108E0,9.225214005E0
1.999468750E-1,-2.780558825E0,3.937092304E0,9.467927933E0
2.019796870E-1,-2.603904963E0,4.089957237E0,9.960137367E0
2.037656250E-1,-2.447353125E0,4.174693108E0,1.048458290E1
2.057656250E-1,-2.323409796E0,4.252753258E0,1.087448311E1
2.077656250E-1,-2.266906738E0,4.358002663E0,1.110062981E1
2.097656250E-1,-2.309820652E0,4.476697445E0,1.120235443E1
2.117656250E-1,-2.469944477E0,4.536188602E0,1.119568920E1
2.137656250E-1,-2.562561989E0,4.553647041E0,1.103389835E1
2.157750000E-1,-2.590056896E0,4.581831455E0,1.083283424E1
2.177703120E-1,-2.614343643E0,4.637118816E0,1.068262100E1
2.197703120E-1,-2.628862381E0,4.701388836E0,1.059776211E1
2.217703120E-1,-2.606146097E0,4.735731125E0,1.056796741E1
2.237703120E-1,-2.554862261E0,4.745518684E0,1.057602215E1
2.257703120E-1,-2.470950127E0,4.732743263E0,1.060347843E1
2.277703120E-1,-2.392544985E0,4.718195915E0,1.059207344E1
2.297703120E-1,-2.306229353E0,4.713005543E0,1.053165245E1
2.317703120E-1,-2.204954386E0,4.719976902E0,1.042401886E1
2.337703120E-1,-2.139726877E0,4.741132259E0,1.029397583E1
2.357703120E-1,-2.129220963E0,4.748764992E0,1.020045757E1
2.377703120E-1,-2.172604084E0,4.736065865E0,1.019227886E1
2.399500000E-1,-2.281070709E0,4.696361065E0,1.027296352E1
2.418203120E-1,-2.433150530E0,4.654366016E0,1.042546463E1
2.437703120E-1,-2.588400126E0,4.584426880E0,1.062649250E1
2.457703120E-1,-2.721604109E0,4.484598160E0,1.083022881E1
2.477703120E-1,-2.824975967E0,4.362216473E0,1.101935196E1
2.497703120E-1,-2.881278038E0,4.206851482E0,1.123979092E1
2.517703120E-1,-2.887761593E0,4.023139954E0,1.156058502E1
2.537703120E-1,-2.867956877E0,3.828884125E0,1.202154446E1
2.557703120E-1,-2.865112543E0,3.674601555E0,1.262453938E1
2.577703120E-1,-2.906417131E0,3.589559555E0,1.330607319E1
2.597703120E-1,-3.018130541E0,3.589875460E0,1.395773602E1
2.617703120E-1,-3.205864668E0,3.636447430E0,1.453653908E1
2.637703120E-1,-3.478803635E0,3.692644358E0,1.501166439E1
2.657703120E-1,-3.837579727E0,3.700957060E0,1.537269020E1
2.677703120E-1,-4.187449455E0,3.640144348E0,1.575496769E1
2.697703120E-1,-4.516489029E0,3.536427498E0,1.606879997E1
2.717703120E-1,-4.805335045E0,3.442478895E0,1.625916672E1
2.737703120E-1,-5.084757805E0,3.367626667E0,1.636171532E1
2.757703120E-1,-5.354699135E0,3.316888571E0,1.639736176E1
2.777703120E-1,-5.590901375E0,3.287937880E0,1.635403442E1
2.799515620E-1,-5.760353565E0,3.249860525E0,1.624871826E1
2.820531250E-1,-5.867642403E0,3.211869478E0,1.609248352E1
2.839484370E-1,-5.930810928E0,3.162357330E0,1.588634300E1
2.857703120E-1,-5.975544453E0,3.106093645E0,1.562669659E1
2.877703120E-1,-6.002139091E0,3.025361061E0,1.530899525E1
2.897703120E-1,-6.011256218E0,2.913906336E0,1.494860077E1
2.917703120E-1,-6.048826218E0,2.787884951E0,1.454852962E1
2.937703120E-1,-6.177250862E0,2.643773079E0,1.412037849E1
2.957703120E-1,-6.181282520E0,2.510952711E0,1.350426483E1
2.977703120E-1,-6.025611877E0,2.384529114E0,1.285604858E1
2.997703120E-1,-5.804674625E0,2.265575647E0,1.231329250E1
3.017703120E-1,-5.559786797E0,2.191087246E0,1.188110161E1
3.037703120E-1,-5.285401344E0,2.181855202E0,1.147966099E1
3.057703120E-1,-4.976951599E0,2.253642797E0,1.107652569E1
3.077703120E-1,-4.629897594E0,2.429702997E0,1.062512207E1
3.097703120E-1,-4.255156994E0,2.681611300E0,1.012023354E1
3.117703120E-1,-3.856580019E0,2.989993811E0,9.578799248E0
3.137703120E-1,-3.451164961E0,3.333686590E0,9.029147148E0
3.157703120E-1,-3.078771114E0,3.658378363E0,8.531469345E0
3.177703120E-1,-2.750851631E0,3.953938007E0,8.127289772E0
3.199500000E-1,-2.479195833E0,4.215040207E0,7.825390816E0
3.218218750E-1,-2.255941391E0,4.425327778E0,7.596620083E0
3.237703120E-1,-2.072564602E0,4.549634457E0,7.412275791E0
3.257703120E-1,-1.926307559E0,4.598351479E0,7.275883198E0
3.277703120E-1,-1.838038206E0,4.577483654E0,7.231073380E0
3.297703120E-1,-1.806951880E0,4.480231285E0,7.249997139E0
3.317703120E-1,-1.802738190E0,4.343914986E0,7.298637867E0
3.337703120E-1,-1.800190687E0,4.185696602E0,7.332788467E0
3.357703120E-1,-1.817218304E0,4.021061897E0,7.328000069E0
3.377703120E-1,-1.848687649E0,3.876260519E0,7.292029858E0
3.397703120E-1,-1.909232140E0,3.736324310E0,7.260924339E0
3.417703120E-1,-1.992090702E0,3.592145205E0,7.211373806E0
3.437703120E-1,-2.071013212E0,3.435803890E0,7.173545361E0
3.457703120E-1,-2.160355330E0,3.268238544E0,7.171256542E0
3.477703120E-1,-2.251612663E0,3.055748224E0,7.210052013E0
3.497703120E-1,-2.359600544E0,2.799645424E0,7.315933704E0
3.517703120E-1,-2.505445719E0,2.527012825E0,7.500258446E0
3.537703120E-1,-2.692615032E0,2.237036705E0,7.715046883E0
3.557703120E-1,-2.943996668E0,1.872830868E0,7.940590382E0
3.577703120E-1,-3.308748484E0,1.331980586E0,8.333507538E0
3.599515620E-1,-3.600955963E0,7.444913983E-1,8.500909805E0
3.620546870E-1,-3.774784565E0,2.923894823E-1,8.228813171E0
3.639468750E-1,-3.951601028E0,-9.576806426E-2,8.010271072E0
3.657703120E-1,-4.158814430E0,-5.556558967E-1,8.093675613E0
3.677703120E-1,-4.368738174E0,-1.132237196E0,8.414049149E0
3.697703120E-1,-4.467139721E0,-1.672215819E0,8.635694504E0
3.717703120E-1,-4.434224129E0,-2.028223991E0,8.608639717E0
3.737703120E-1,-4.302917004E0,-2.158746243E0,8.413109779E0
3.757703120E-1,-4.145263195E0,-2.110096216E0,8.119810104E0
3.777703120E-1,-3.897856236E0,-1.951446772E0,7.755202293E0
3.799203120E-1,-3.562514544E0,-1.740096211E0,7.242986679E0
3.821656250E-1,-3.188243389E0,-1.456709027E0,6.635702610E0
3.840453120E-1,-2.829209089E0,-1.088078499E0,6.023189068E0
3.857703120E-1,-2.514428854E0,-6.168324947E-1,5.423939228E0
3.877703120E-1,-2.230562687E0,-5.197333172E-2,4.881528378E0
3.897703120E-1,-1.949895382E0,5.740433931E-1,4.393340588E0
3.917703120E-1,-1.659028530E0,1.236748815E0,3.923636913E0
3.937703120E-1,-1.340312362E0,1.881191254E0,3.478382349E0
3.957703120E-1,-9.595673084E-1,2.608262539E0,3.174318790E0
3.977703120E-1,-4.036049545E-1,3.857490063E0,3.574591160E0
3.999500000E-1,3.894025385E-1,5.512275696E0,4.632732391E0
4.018203120E-1,1.290599227E0,7.176447392E0,5.098969936E0
4.037703120E-1,2.057260990E0,8.188524246E0,4.795854092E0
4.057703120E-1,2.590727329E0,8.357459068E0,4.232488632E0
4.077703120E-1,2.790968657E0,7.964666367E0,3.487327099E0
4.097703120E-1,2.688448906E0,7.242584705E0,2.537001371E0
4.117703120E-1,2.310605764E0,6.403388023E0,1.552668571E0
4.137703120E-1,1.800755739E0,5.748679161E0,6.646208167E-1
4.157703120E-1,1.267748952E0,5.453062534E0,5.210740492E-2
4.177703120E-1,8.819952011E-1,5.499165058E0,-1.486033201E-1
4.197703120E-1,7.366862893E-1,5.703064919E0,-1.599326730E-1
4.217703120E-1,7.823581100E-1,5.952244282E0,-2.647700012E-1
4.237703120E-1,1.019192457E0,6.102130413E0,-6.246184707E-1
4.257703120E-1,1.391625047E0,6.207600117E0,-1.175371051E0
4.277703120E-1,1.751779914E0,6.430126667E0,-1.561479211E0
4.297703120E-1,2.049541950E0,6.703630924E0,-1.778508782E0
4.317703120E-1,2.291796923E0,6.992897987E0,-1.965869427E0
4.337703120E-1,2.429789066E0,7.414766312E0,-2.150989056E0
4.357703120E-1,2.588074446E0,8.130507469E0,-2.113668203E0
4.378328120E-1,2.779333115E0,9.031801224E0,-2.086374521E0
4.399515620E-1,2.967019320E0,9.620812416E0,-2.275162220E0
4.420531250E-1,3.177814484E0,9.815115929E0,-2.434165716E0
4.439468750E-1,3.269809008E0,9.810557365E0,-2.636494875E0
4.457703120E-1,3.146833181E0,9.893348694E0,-2.635316849E0
4.477703120E-1,2.910994768E0,1.008669567E1,-2.460578680E0
4.497703120E-1,2.726344585E0,1.032340527E1,-2.151334047E0
4.517703120E-1,2.564323902E0,1.044408226E1,-1.737951040E0
4.537703120E-1,2.411861420E0,1.042580032E1,-1.316332102E0
4.557703120E-1,2.292649269E0,1.040714455E1,-9.199863672E-1
4.577703120E-1,2.186126471E0,1.036596489E1,-5.187085867E-1
4.597703120E-1,2.069653273E0,1.025052547E1,-3.349967301E-2
4.617703120E-1,1.908092499E0,1.002923393E1,4.811770916E-1
4.637703120E-1,1.755198836E0,9.717011452E0,9.360179305E-1
4.657703120E-1,1.629187226E0,9.330136299E0,1.350042462E0
4.677703120E-1,1.541444421E0,8.926618576E0,1.712802410E0
4.697703120E-1,1.489787221E0,8.664778709E0,2.174777746E0
4.717703120E-1,1.454142332E0,8.612421989E0,2.677273035E0
4.737703120E-1,1.279978514E0,8.654052734E0,3.152454853E0
4.757703120E-1,1.339756966E0,8.619327545E0,3.589195490E0
4.777703120E-1,1.443713307E0,8.671128273E0,3.874603748E0
4.799500000E-1,1.417242885E0,8.749801636E0,3.908840895E0
4.818218750E-1,1.379740119E0,8.799131393E0,3.806531668E0
4.837703120E-1,1.244937062E0,8.918373108E0,3.610762596E0
4.857703120E-1,1.038566351E0,9.087911606E0,3.447114229E0
4.877703120E-1,7.962540388E-1,9.226457596E0,3.351346254E0
4.897703120E-1,4.951879680E-1,9.298361778E0,3.322721004E0
4.917703120E-1,1.837884933E-1,9.286552429E0,3.335850716E0
4.937703120E-1,-9.100839496E-2,9.185881615E0,3.295321703E0
4.957703120E-1,-3.085934520E-1,9.052515030E0,3.156075001E0
4.977703120E-1,-4.394892156E-1,8.937698364E0,2.978224039E0
4.997703120E-1,-4.552718103E-1,8.778676033E0,2.781133652E0
5.017703120E-1,-3.002233207E-1,8.577170372E0,2.558807850E0
5.037703120E-1,-2.189258039E-1,8.384254456E0,2.328150272E0
5.057703120E-1,-1.937100738E-1,8.245333672E0,2.297763109E0
5.077703120E-1,-1.429242641E-1,8.272455215E0,2.356880903E0
5.097703120E-1,-9.125739336E-2,8.464201927E0,2.422980070E0
5.117703120E-1,-8.804916590E-2,8.694036484E0,2.479454279E0
5.137703120E-1,-7.496725023E-2,8.846249580E0,2.471362114E0
5.157703120E-1,-3.513730317E-2,8.895570755E0,2.427346945E0
5.177703120E-1,-2.142331749E-2,8.890581131E0,2.362885475E0
5.199515620E-1,8.906430565E-3,8.871503830E0,2.252033949E0
5.220531250E-1,7.411490381E-2,8.828972816E0,2.157319307E0
5.239484370E-1,2.127391845E-1,8.787227631E0,2.082878828E0
5.257703120E-1,3.782072365E-1,8.775582314E0,2.008773565E0
5.277703120E-1,5.431390405E-1,8.812586784E0,1.935127974E0
5.299515620E-1,6.887064576E-1,8.897303581E0,1.842682958E0
5.319937500E-1,7.448552847E-1,9.042909622E0,1.783507943E0
5.337734370E-1,6.779708862E-1,9.256385803E0,1.794023156E0
5.357703120E-1,5.234778523E-1,9.479152679E0,1.897500634E0
5.377703120E-1,3.318555057E-1,9.660920143E0,2.052750349E0
5.397703120E-1,1.450120062E-1,9.765919685E0,2.145482540E0
5.417703120E-1,7.038952783E-3,9.801958084E0,2.195099831E0
5.437703120E-1,-9.493488073E-2,9.795847893E0,2.207645416E0
5.457703120E-1,-1.826009899E-1,9.771416664E0,2.192973852E0
5.477703120E-1,-2.520136833E-1,9.720401764E0,2.155557394E0
5.497703120E-1,-3.204016387E-1,9.662691116E0,2.109272480E0
5.517703120E-1,-4.009330273E-1,9.603688240E0,2.060478687E0
5.537703120E-1,-4.969021976E-1,9.538289070E0,2.022602320E0
5.557703120E-1,-6.131072044E-1,9.443899155E0,2.018197060E0
5.577703120E-1,-7.481018901E-1,9.296704292E0,2.057414055E0
5.599515620E-1,-9.068086743E-1,9.101557732E0,2.140971661E0
5.618203120E-1,-1.078472853E0,8.886194229E0,2.186241388E0
5.637718750E-1,-1.256026983E0,8.670372009E0,2.150500774E0
5.657703120E-1,-1.415672421E0,8.479314804E0,2.010459185E0
5.677703120E-1,-1.546108365E0,8.348045349E0,1.807679653E0
5.697703120E-1,-1.637988329E0,8.276698112E0,1.580862641E0
5.717703120E-1,-1.644222736E0,8.227693558E0,1.336682916E0
5.737718750E-1,-1.562034726E0,8.225270271E0,1.099637747E0
5.757703120E-1,-1.408796191E0,8.277118683E0,8.864292502E-1
5.777703120E-1,-1.181145906E0,8.383517265E0,6.653581858E-1
5.797703120E-1,-8.835753798E-1,8.544569969E0,4.305444956E-1
5.817703120E-1,-5.295782685E-1,8.745731354E0,1.470135599E-1
5.837718750E-1,-1.600475907E-1,8.979185104E0,-1.683602631E-1
5.857703120E-1,1.974067241E-1,9.252239227E0,-4.979364872E-1
5.877703120E-1,5.245791674E-1,9.548574448E0,-8.550939560E-1
5.897703120E-1,7.748881578E-1,9.885715485E0,-1.205470920E0
5.917703120E-1,9.740953445E-1,1.019417572E1,-1.500781417E0
5.937703120E-1,1.165497422E0,1.045940495E1,-1.735394001E0
5.957703120E-1,1.345110297E0,1.068439388E1,-1.882397890E0
5.977703120E-1,1.523353934E0,1.083435631E1,-1.962460041E0
5.999515620E-1,1.702037930E0,1.089335918E1,-2.008955479E0
6.020671870E-1,1.854835987E0,1.090053177E1,-2.030062675E0
6.041234370E-1,1.963465691E0,1.084995747E1,-1.989265680E0
6.056171870E-1,2.098565578E0,1.077410793E1,-1.895709753E0
6.077703120E-1,2.124298573E0,1.075271416E1,-1.875818729E0
6.097703120E-1,2.169606447E0,1.071327782E1,-1.822983503E0
6.117703120E-1,2.226100206E0,1.068623257E1,-1.785921216E0
6.137703120E-1,2.262654781E0,1.067070770E1,-1.747355461E0
6.157703120E-1,2.288962126E0,1.066117859E1,-1.727004766E0
6.177703120E-1,2.322758675E0,1.067760372E1,-1.762601733E0
6.197703120E-1,2.379501104E0,1.073160648E1,-1.874966383E0
6.217703120E-1,2.445121527E0,1.074644184E1,-1.997664452E0
6.237703120E-1,2.549221516E0,1.075302029E1,-2.237496376E0
6.257703120E-1,2.680308819E0,1.078597450E1,-2.599672079E0
6.277703120E-1,2.770991802E0,1.082281685E1,-2.982466459E0
6.297703120E-1,2.837540865E0,1.082350540E1,-3.357187986E0
6.317703120E-1,2.938087702E0,1.078172302E1,-3.748860121E0
6.337703120E-1,3.055671692E0,1.077663708E1,-4.203317642E0
6.357703120E-1,3.114272118E0,1.089075375E1,-4.729879379E0
6.377703120E-1,3.115746975E0,1.109043026E1,-5.284089565E0
6.399500000E-1,3.078502893E0,1.128808594E1,-5.807835579E0
6.418218750E-1,3.018686056E0,1.145066166E1,-6.288227081E0
6.437703120E-1,2.929296255E0,1.159222698E1,-6.663743019E0
6.457703120E-1,2.826996803E0,1.171094036E1,-6.907990456E0
6.477703120E-1,2.776143789E0,1.178464317E1,-7.044258595E0
6.497703120E-1,2.782330513E0,1.181725311E1,-7.108643532E0
6.517703120E-1,2.812861443E0,1.186973381E1,-7.150896549E0
6.537703120E-1,2.851465464E0,1.196069431E1,-7.156421661E0
6.557703120E-1,2.908552647E0,1.211067677E1,-7.147362232E0
6.577703120E-1,2.944705248E0,1.231192398E1,-7.140160561E0
6.597703120E-1,2.928204298E0,1.258534145E1,-7.068459034E0
6.617703120E-1,2.795948744E0,1.294474888E1,-6.807242393E0
6.637703120E-1,2.517445564E0,1.337882805E1,-6.308146954E0
6.657703120E-1,2.046745539E0,1.384459591E1,-5.582493305E0
6.677703120E-1,1.458605051E0,1.430145741E1,-4.674161434E0
6.697703120E-1,8.344463706E-1,1.466722488E1,-3.615062475E0
6.717703120E-1,2.928491831E-1,1.492162323E1,-2.490496635E0
6.737703120E-1,-2.135915160E-1,1.508035851E1,-1.351373672E0
6.757703120E-1,-9.112523198E-1,1.509729958E1,-3.015736341E-1
6.777703120E-1,-1.521744967E0,1.502884483E1,5.770504475E-1
6.799515620E-1,-1.820091367E0,1.508406448E1,1.184919238E0
6.822015620E-1,-1.516190410E0,1.508786583E1,1.536684871E0
