"Time (s)","Acceleration x (m/s^2)","Acceleration y (m/s^2)","Acceleration z (m/s^2)"
0.000000000E0,1.796025991E0,1.196746922E1,-2.763189971E-1
1.000885400E-2,2.149959952E-1,1.132068443E1,5.094050169E-1
1.251109400E-2,-4.850900173E-2,1.127277374E1,5.046139956E-1
1.501328100E-2,-3.024320006E-1,1.110508919E1,5.764790177E-1
1.751552100E-2,-5.707280040E-1,1.085116577E1,7.154179811E-1
2.001776000E-2,-8.677700162E-1,1.068827248E1,8.208199739E-1
2.252031200E-2,-1.088155985E0,1.047267723E1,9.358040094E-1
2.502286400E-2,-1.346869946E0,1.039122963E1,9.789230227E-1
2.752510400E-2,-1.524137020E0,1.030499172E1,9.837139845E-1
3.002734400E-2,-1.629539013E0,1.028103733E1,9.070580006E-1
3.252958300E-2,-1.653494000E0,1.016605282E1,9.932960272E-1
3.502187500E-2,-1.591210961E0,9.706116676E0,1.376575947E0
3.752411400E-2,-1.667866945E0,9.519268036E0,1.299919963E0
4.002635400E-2,-1.725358963E0,9.351582527E0,9.741320014E-1
4.252859400E-2,-1.744523048E0,9.231807709E0,7.106270194E-1
4.503078100E-2,-1.715777040E0,9.207853317E0,4.758679867E-1
4.753302100E-2,-1.663076043E0,9.207853317E0,3.896299899E-1
5.003531200E-2,-1.572046995E0,9.097660065E0,2.602730095E-1
5.253750000E-2,-1.466645002E0,9.035376549E0,6.384199858E-2
5.503973900E-2,-1.212721944E0,9.025794983E0,-1.182160005E-1
5.754197900E-2,-9.779629707E-1,8.982675552E0,-3.002740145E-1
6.004421900E-2,-7.144579887E-1,8.963512421E0,-4.823319912E-1
6.251817700E-2,-4.126250148E-1,9.011422157E0,-6.595990062E-1
6.502041600E-2,-1.874479949E-1,9.083287239E0,-8.560299873E-1
6.752265600E-2,4.731100053E-2,9.193479538E0,-1.057252049E0
7.002489600E-2,2.629059851E-1,9.246180534E0,-1.234519005E0
7.252708300E-2,5.120379925E-1,9.389910698E0,-1.383039951E0
7.502937500E-2,7.372149825E-1,9.485731125E0,-1.483651042E0
7.753161400E-2,9.336460233E-1,9.571969032E0,-1.536352038E0
8.003380200E-2,1.154031992E0,9.605505943E0,-1.598634958E0
8.253604100E-2,1.331298947E0,9.744444847E0,-1.560307026E0
8.503828100E-2,1.460656047E0,9.873802185E0,-1.416576982E0
8.754046900E-2,1.585222006E0,9.969621658E0,-1.363875985E0
9.004270800E-2,1.724161029E0,1.004627800E1,-1.253682971E0
9.257895800E-2,1.925382972E0,1.017084408E1,-1.239310026E0
9.508114600E-2,2.064321995E0,1.026187325E1,-1.258473992E0
9.758338500E-2,2.203260899E0,1.025708199E1,-1.268056035E0
1.000856250E-1,2.289499044E0,1.028582764E1,-1.287220001E0
1.025878640E-1,2.414064884E0,1.026666355E1,-1.315966010E0
1.050901040E-1,2.438019991E0,1.024270916E1,-1.268056035E0
1.075922910E-1,2.481138945E0,1.013730717E1,-1.244101048E0
1.100945310E-1,2.562586069E0,1.007502365E1,-1.248891950E0
1.125967190E-1,2.576958895E0,1.000315857E1,-1.344712019E0
1.150990100E-1,2.620078087E0,9.926503181E0,-1.359084964E0
1.176011980E-1,2.648823977E0,9.854638100E0,-1.335129976E0
1.201034370E-1,2.629659891E0,9.797145844E0,-1.397413015E0
1.225650520E-1,2.629659891E0,9.691743851E0,-1.498023987E0
1.250672390E-1,2.682360888E0,9.576760292E0,-1.560307026E0
1.275694270E-1,2.639241934E0,9.394701958E0,-1.502815008E0
1.300716660E-1,2.634450912E0,9.298881531E0,-1.531561017E0
1.325739060E-1,2.576958895E0,9.193479538E0,-1.593844056E0
1.350761980E-1,2.529048920E0,9.049750328E0,-1.613008022E0
1.375783850E-1,2.447602034E0,8.939557076E0,-1.550724983E0
1.400806250E-1,2.361363888E0,8.872483253E0,-1.569888949E0
1.425828640E-1,2.346991062E0,8.719170570E0,-1.636963010E0
1.450851040E-1,2.375736952E0,8.733544350E0,-1.651335955E0
1.475873440E-1,2.251171112E0,8.743125916E0,-1.517187953E0
1.500895310E-1,2.121814013E0,8.728753090E0,-1.392621994E0
1.526304160E-1,2.069113016E0,8.714380264E0,-1.320757031E0
1.551326560E-1,2.049948931E0,8.608978271E0,-1.229727983E0
1.576348960E-1,1.973292947E0,8.532321930E0,-1.186609030E0
1.601370830E-1,1.863100052E0,8.489203453E0,-1.129117012E0
1.626393230E-1,1.762488961E0,8.417338371E0,-1.133908033E0
1.651416140E-1,1.676251054E0,8.369427681E0,-1.177026987E0
1.676438020E-1,1.585222006E0,8.383801460E0,-1.162654042E0
1.701460410E-1,1.475028992E0,8.379010201E0,-1.062042952E0
1.726482290E-1,1.360044956E0,8.412547112E0,-9.949690104E-1
1.751504690E-1,1.273807049E0,8.460456848E0,-9.183130264E-1
1.776527600E-1,1.240270019E0,8.508366585E0,-8.991490006E-1
1.801549480E-1,1.240270019E0,8.618559837E0,-9.183130264E-1
1.826264580E-1,1.240270019E0,8.714380264E0,-9.853870273E-1
1.851286980E-1,1.201941967E0,8.819782257E0,-1.018923998E0
1.876308850E-1,1.230687976E0,8.886856079E0,-1.038087964E0
1.901331250E-1,1.307343960E0,8.963512421E0,-1.062042952E0
1.926353120E-1,1.326508045E0,9.054540634E0,-1.095579982E0
1.951375520E-1,1.403164029E0,9.174316406E0,-1.124325991E0
1.976398440E-1,1.374418020E0,9.255763054E0,-1.143489957E0
2.001420310E-1,1.398373008E0,9.298881531E0,-1.124325991E0
2.026442710E-1,1.407955050E0,9.294091225E0,-1.095579982E0
2.051465100E-1,1.364835978E0,9.327628136E0,-1.100371003E0
2.076486980E-1,1.427119017E0,9.346792221E0,-1.095579982E0
2.101509890E-1,1.479820013E0,9.375537872E0,-1.081207037E0
2.126517710E-1,1.527729988E0,9.394701958E0,-1.081207037E0
2.151540100E-1,1.532521009E0,9.351582527E0,-1.052461028E0
2.176562500E-1,1.580430984E0,9.365956306E0,-1.052461028E0
2.201584890E-1,1.647505045E0,9.356373787E0,-1.052461028E0
2.226606770E-1,1.628340960E0,9.313255310E0,-1.062042952E0
2.251629690E-1,1.666669011E0,9.303672791E0,-1.028506041E0
2.276651560E-1,1.724161029E0,9.270135880E0,-9.614319801E-1
2.301674480E-1,1.709787965E0,9.188689232E0,-8.847759962E-1
2.326696350E-1,1.704996943E0,9.174316406E0,-7.554190159E-1
2.351718750E-1,1.724161029E0,9.107241631E0,-7.027180195E-1
2.376740620E-1,1.738533974E0,9.121615410E0,-6.835539937E-1
2.401763020E-1,1.772071004E0,9.059331894E0,-5.973160267E-1
2.426814060E-1,1.805608034E0,8.997049332E0,-4.535860121E-1
2.451836460E-1,1.939756036E0,8.992258072E0,-4.248400033E-1
2.476858330E-1,2.006829977E0,8.973093987E0,-4.056760073E-1
2.501880730E-1,2.064321995E0,9.025794983E0,-3.433929980E-1
2.526902600E-1,2.102649927E0,9.011422157E0,-2.715280056E-1
2.551925000E-1,2.131396055E0,9.102451324E0,-2.523640096E-1
2.576947910E-1,2.155350924E0,9.044959068E0,-2.236180007E-1
2.601969790E-1,2.174515009E0,9.097660065E0,-1.709170043E-1
2.626992190E-1,2.241589069E0,9.121615410E0,-1.277980059E-1
2.652014580E-1,2.246380091E0,9.135988235E0,-7.509700209E-2
2.677036980E-1,2.217633963E0,9.159942627E0,-8.023000322E-3
2.702058850E-1,2.179306030E0,9.092868805E0,5.426000059E-2
2.727412500E-1,2.203260899E0,9.159942627E0,1.644529998E-1
2.752434890E-1,2.169723988E0,9.126405716E0,2.506909966E-1
2.777457290E-1,2.107440948E0,8.997049332E0,3.608840108E-1
2.802479690E-1,2.097858906E0,8.896437645E0,4.519129992E-1
2.827502080E-1,2.107440948E0,8.843736649E0,5.237780213E-1
2.852523960E-1,2.093067884E0,8.733544350E0,5.812699795E-1
2.877546350E-1,2.064321995E0,8.642515182E0,7.250000238E-1
2.902568750E-1,2.069113016E0,8.527530670E0,7.010449767E-1
2.927591140E-1,2.140978098E0,8.422128677E0,7.106270194E-1
2.952613020E-1,2.232007027E0,8.273608208E0,7.345820069E-1
2.977635940E-1,2.284708023E0,8.149042130E0,7.585369945E-1
3.002657810E-1,2.375736952E0,8.134669304E0,7.585369945E-1
3.027704160E-1,2.553004026E0,8.120295525E0,7.537459731E-1
3.052726560E-1,2.658406019E0,8.091549873E0,7.920740247E-1
3.077748960E-1,2.816509008E0,8.038848877E0,8.112379909E-1
3.102770830E-1,2.950656891E0,8.014893532E0,8.160290122E-1
3.127793230E-1,3.118341923E0,7.976565838E0,7.920740247E-1
3.152815620E-1,3.233325958E0,7.981357098E0,7.824919820E-1
3.177838020E-1,3.319564104E0,7.938238144E0,7.872830033E-1
3.202860410E-1,3.444129944E0,7.947820187E0,7.633280158E-1
3.227882290E-1,3.530368090E0,8.034057617E0,7.489550114E-1
3.252904690E-1,3.616605997E0,8.101132393E0,6.866719723E-1
3.277927600E-1,3.669306993E0,8.177787781E0,6.387619972E-1
3.302949480E-1,3.750754118E0,8.249652863E0,6.148070097E-1
3.327932810E-1,3.784291029E0,8.355054855E0,5.956429839E-1
3.352955210E-1,3.779500008E0,8.498785019E0,4.950320125E-1
3.377977080E-1,3.784291029E0,8.685633659E0,3.896299899E-1
3.403000000E-1,3.731590033E0,8.848527908E0,3.081830144E-1
3.428021870E-1,3.736381054E0,9.025794983E0,2.267359942E-1
3.453044270E-1,3.731590033E0,9.193479538E0,2.027810067E-1
3.478066660E-1,3.674098015E0,9.389910698E0,1.740349978E-1
3.503089060E-1,3.626188040E0,9.548013687E0,1.644529998E-1
3.528110940E-1,3.654933929E0,9.730072021E0,1.884080023E-1
3.553133330E-1,3.554322958E0,9.921711922E0,1.979900002E-1
3.578156250E-1,3.472876072E0,1.007981491E1,2.123630047E-1
3.603178120E-1,3.453711987E0,1.026187325E1,2.890189886E-1
3.627851560E-1,3.391428947E0,1.041997623E1,2.938100100E-1
3.652873960E-1,3.319564104E0,1.058286953E1,2.698549926E-1
3.677896350E-1,3.209371090E0,1.076971912E1,3.033919930E-1
3.702918750E-1,3.017730951E0,1.088470268E1,2.459000051E-1
3.727940620E-1,2.869210005E0,1.098052311E1,2.411089987E-1
3.752963020E-1,2.648823977E0,1.108592510E1,2.506909966E-1
3.777985940E-1,2.471556902E0,1.106676102E1,2.602730095E-1
3.803007810E-1,2.361363888E0,1.100447845E1,2.842279971E-1
3.828030210E-1,2.217633963E0,1.092782211E1,3.177649975E-1
3.853052600E-1,2.069113016E0,1.088470268E1,2.986010015E-1
3.878075000E-1,1.949337959E0,1.075055504E1,2.650640011E-1
3.903096870E-1,1.867890954E0,1.058286953E1,2.794370055E-1
3.928454160E-1,1.733742952E0,1.046309471E1,2.267359942E-1
3.953476040E-1,1.685832977E0,1.028582764E1,1.788260043E-1
3.978497910E-1,1.609176993E0,1.016605282E1,1.069609970E-1
4.003520310E-1,1.566058040E0,9.940876007E0,1.069609970E-1
4.028543230E-1,1.508566022E0,9.773191452E0,1.404979974E-1
4.053565100E-1,1.455865026E0,9.667789459E0,1.692440063E-1
4.078587500E-1,1.451074004E0,9.567177773E0,1.644529998E-1
4.103609890E-1,1.446282983E0,9.385120392E0,2.027810067E-1
4.128631770E-1,1.441491961E0,9.298881531E0,3.129740059E-1
4.153654690E-1,1.455865026E0,9.274927139E0,4.423309863E-1
4.178676560E-1,1.470237970E0,9.217434883E0,5.046139956E-1
4.203698960E-1,1.494192958E0,9.150361061E0,6.004340053E-1
4.228426040E-1,1.518147945E0,9.112032890E0,6.770899892E-1
4.253447910E-1,1.537312031E0,8.997049332E0,7.154179811E-1
4.278470310E-1,1.590013027E0,8.944348335E0,7.441639900E-1
4.303492710E-1,1.618759036E0,8.834155083E0,7.920740247E-1
4.328514580E-1,1.685832977E0,8.747917175E0,7.633280158E-1
4.353536980E-1,1.772071004E0,8.632932663E0,6.818810105E-1
4.378559370E-1,1.786443949E0,8.508366585E0,6.531350017E-1
4.403581770E-1,1.819980979E0,8.489203453E0,6.291800141E-1
4.428604160E-1,1.906219006E0,8.388591766E0,5.668969750E-1
4.453626560E-1,2.011620998E0,8.326309204E0,4.614950120E-1
4.478648440E-1,2.045157909E0,8.326309204E0,3.225559890E-1
4.503670830E-1,2.093067884E0,8.355054855E0,1.452890038E-1
4.529016140E-1,2.160141945E0,8.359846115E0,-8.467900008E-2
4.554038540E-1,2.212842941E0,8.369427681E0,-3.194380105E-1
4.579060940E-1,2.327826977E0,8.355054855E0,-5.541970134E-1
4.604082810E-1,2.519467115E0,8.335890770E0,-7.745829821E-1
4.629105210E-1,2.725480080E0,8.264025688E0,-1.047670007E0
4.654127600E-1,2.984194040E0,8.307145119E0,-1.397413015E0
4.679150000E-1,3.194998026E0,8.364637375E0,-1.742365003E0
4.704172390E-1,3.362683058E0,8.503576279E0,-2.149600029E0
4.729194270E-1,3.424966097E0,8.752708435E0,-2.532880068E0
4.754216660E-1,3.439338923E0,9.112032890E0,-2.978442907E0
4.779239580E-1,3.372265100E0,9.552804947E0,-3.309021950E0
4.804261460E-1,3.180624962E0,9.897756577E0,-3.495871067E0
4.828957290E-1,3.065640926E0,1.024270916E1,-3.596482038E0
4.853979160E-1,2.931493044E0,1.054454231E1,-3.663556099E0
4.879001560E-1,2.811717987E0,1.087032986E1,-3.673137903E0
4.904023960E-1,2.715898037E0,1.123923683E1,-3.721048117E0
4.929045830E-1,2.744643927E0,1.155065155E1,-3.668346882E0
4.954068230E-1,2.797344923E0,1.179978371E1,-3.673137903E0
4.979091140E-1,2.787763119E0,1.207287121E1,-3.658765078E0
5.004113020E-1,2.907537937E0,1.233637619E1,-3.653974056E0
5.029135410E-1,3.132714987E0,1.271965599E1,-3.668346882E0
5.054157810E-1,3.242908001E0,1.310772705E1,-3.586899996E0
5.079179690E-1,3.338727951E0,1.361557293E1,-3.428797007E0
5.104202080E-1,3.386637926E0,1.419049263E1,-3.280276060E0
5.129193750E-1,3.338727951E0,1.483248711E1,-3.136545897E0
5.154216140E-1,3.305191040E0,1.561341953E1,-2.901787043E0
5.179238540E-1,3.266863108E0,1.642789078E1,-2.614326954E0
5.204260940E-1,3.137506008E0,1.728068733E1,-2.341239929E0
5.229282810E-1,3.099178076E0,1.822930527E1,-2.173554897E0
5.254305210E-1,2.984194040E0,1.917313385E1,-2.015451908E0
5.279328120E-1,2.826091051E0,1.999718475E1,-1.991497040E0
5.304350000E-1,2.701524973E0,2.070146179E1,-2.087316990E0
5.329372390E-1,2.538630962E0,2.120451736E1,-2.211883068E0
5.354394790E-1,2.284708023E0,2.162612534E1,-2.413105011E0
5.379416660E-1,2.040366888E0,2.179380989E1,-2.590372086E0
5.404439060E-1,1.815189958E0,2.176027298E1,-2.710146904E0
5.429487500E-1,1.647505045E0,2.150155830E1,-2.892205000E0
5.454509370E-1,1.475028992E0,2.107995033E1,-3.112591028E0
5.479531250E-1,1.489402056E0,2.047628593E1,-3.189246893E0
5.504553640E-1,1.508566022E0,1.978638077E1,-3.237157106E0
5.529575520E-1,1.508566022E0,1.886171722E1,-3.213202000E0
5.554597910E-1,1.494192958E0,1.798975563E1,-3.155709982E0
5.579619790E-1,1.498983979E0,1.711779404E1,-3.117382050E0
5.604641660E-1,1.484611034E0,1.637998009E1,-2.983233929E0
5.629664060E-1,1.383999944E0,1.577631378E1,-2.930532932E0
5.654685940E-1,1.326508045E0,1.524451256E1,-2.805967093E0
5.679707810E-1,1.221106052E0,1.480374146E1,-2.647864103E0
5.704730210E-1,1.039047956E0,1.450669861E1,-2.575999022E0
5.730083330E-1,9.001089931E-1,1.437734222E1,-2.532880068E0
5.755105210E-1,7.228419781E-1,1.419049263E1,-2.437060118E0
5.780127080E-1,6.030669808E-1,1.407550907E1,-2.269375086E0
5.805149480E-1,4.832920134E-1,1.392698765E1,-2.135226965E0
5.830171350E-1,3.922629952E-1,1.380242157E1,-1.929214001E0
5.855193230E-1,3.299799860E-1,1.368743801E1,-1.636963010E0
5.880215620E-1,2.629059851E-1,1.354370785E1,-1.301592946E0
5.905237500E-1,1.766680032E-1,1.336165047E1,-9.662230015E-1
5.930259370E-1,1.287579983E-1,1.319875622E1,-6.308529973E-1
5.955281770E-1,6.647499651E-2,1.303107071E1,-2.763189971E-1
5.980303640E-1,1.856499910E-2,1.286817741E1,7.342399657E-2
6.005325520E-1,-1.497200038E-2,1.270528316E1,3.704659939E-1
6.030356770E-1,-2.455399930E-2,1.260467243E1,5.621060133E-1
6.055378120E-1,-4.371799901E-2,1.251843357E1,7.872830033E-1
6.080400520E-1,-1.976300031E-2,1.245615101E1,9.980869889E-1
6.105422910E-1,-1.497200038E-2,1.241782284E1,1.103489041E0
6.130444790E-1,8.983000182E-3,1.232200336E1,1.194517970E0
6.155466660E-1,6.647499651E-2,1.225013828E1,1.261592031E0
6.180489060E-1,1.239669994E-1,1.214473629E1,1.319084048E0
6.205510940E-1,1.766680032E-1,1.195309639E1,1.343039036E0
6.230532810E-1,1.862500012E-1,1.182853031E1,1.386157990E0
6.255555210E-1,2.006230056E-1,1.168959141E1,1.419695020E0
6.280577080E-1,2.149959952E-1,1.146441364E1,1.333456993E0
6.305598960E-1,1.527130008E-1,1.129193783E1,1.271173954E0
6.330628640E-1,1.335490048E-1,1.104280567E1,1.204100013E0
6.355650520E-1,1.287579983E-1,1.067389870E1,1.117861986E0
6.380672390E-1,1.575040072E-1,1.035769272E1,1.113070965E0
6.405694790E-1,9.522099793E-2,9.931294441E0,1.160981059E0
6.430716660E-1,1.191760004E-1,9.615088463E0,1.151399016E0
6.455738540E-1,1.766680032E-1,9.298881531E0,1.103489041E0
6.480760940E-1,1.527130008E-1,8.872483253E0,1.093906999E0
6.505782810E-1,1.377400011E-2,8.522740364E0,1.117861986E0
6.530804690E-1,-1.634930074E-1,8.335890770E0,1.036414981E0
6.555827080E-1,-1.443289965E-1,8.225698471E0,8.208199739E-1
6.580848960E-1,-1.497200038E-2,7.880745888E0,5.812699795E-1
6.605870830E-1,-1.443289965E-1,7.602868080E0,4.471220076E-1
6.630561980E-1,-3.695060015E-1,7.248333931E0,4.902409911E-1
6.655583850E-1,-5.371909738E-1,7.186050892E0,2.219450027E-1
6.680606250E-1,-6.952940226E-1,7.286662102E0,6.349999923E-3
6.705628120E-1,-7.288309932E-1,7.190842152E0,-2.188269943E-1
6.730650000E-1,-7.384129763E-1,7.042321205E0,-5.350329876E-1
6.755672390E-1,-8.246510029E-1,7.037529945E0,-8.368660212E-1
6.780694270E-1,-8.054869771E-1,7.157304764E0,-1.057252049E0
6.805716140E-1,-7.479950190E-1,7.368109226E0,-1.248891950E0
6.830738540E-1,-6.186379790E-1,7.583703995E0,-1.430950046E0
6.855760410E-1,-4.557439983E-1,7.799298763E0,-1.536352038E0
6.880782290E-1,-2.688950002E-1,8.067594528E0,-1.531561017E0
6.905804690E-1,-1.155830026E-1,8.331100464E0,-1.378249049E0
6.931181770E-1,-2.934500016E-2,8.580231667E0,-1.148280978E0
6.956204160E-1,2.149959952E-1,8.872483253E0,-9.614319801E-1
6.981226040E-1,5.791119933E-1,9.016213417E0,-9.231039882E-1
7.006248440E-1,9.144819975E-1,9.169525146E0,-7.506279945E-1
7.031270310E-1,1.245061040E0,9.318045616E0,-5.398240089E-1
7.056292190E-1,1.489402056E0,9.476148605E0,-2.906920016E-1
7.081314580E-1,1.757698059E0,9.600714684E0,-1.086340025E-1
7.106336460E-1,2.107440948E0,9.701326370E0,2.551399916E-2
7.131358330E-1,2.466766119E0,9.749236107E0,9.258800000E-2
7.156380730E-1,2.797344923E0,9.730072021E0,2.602730095E-1
7.181402600E-1,3.238116980E0,9.701326370E0,4.806590080E-1
7.206424480E-1,3.549531937E0,9.763608932E0,7.393730283E-1
7.231396350E-1,3.731590033E0,9.787564278E0,1.045997024E0
7.256418230E-1,3.913647890E0,9.777981758E0,1.357411981E0
7.281440100E-1,3.932811975E0,9.768400192E0,1.635290027E0
7.306462500E-1,3.932811975E0,9.754027367E0,1.870049000E0
7.331484370E-1,3.975930929E0,9.672579765E0,2.133553982E0
7.356506250E-1,3.865737915E0,9.634251595E0,2.238955975E0
7.381528640E-1,3.760335922E0,9.538432121E0,2.267702103E0
7.406550520E-1,3.726799011E0,9.437821388E0,2.377895117E0
7.431572390E-1,3.635770082E0,9.337209702E0,2.440177917E0
7.456594790E-1,3.525577068E0,9.169525146E0,2.449759960E0
7.481616660E-1,3.362683058E0,9.078495979E0,2.449759960E0
7.506638540E-1,3.204580069E0,8.910811424E0,2.483297110E0
7.531369270E-1,3.127923965E0,8.767081261E0,2.416223049E0
7.556391140E-1,3.046477079E0,8.580231667E0,2.344357967E0
7.581413020E-1,2.941075087E0,8.359846115E0,2.162300110E0
7.606435410E-1,2.830882072E0,8.182579041E0,1.985033035E0
7.631457290E-1,2.634450912E0,8.058012962E0,1.841302991E0
7.656479690E-1,2.394901037E0,7.952610970E0,1.731109977E0
7.681501560E-1,2.160141945E0,7.784925938E0,1.606544018E0
7.706523440E-1,1.891845942E0,7.665151119E0,1.472396016E0
7.731545830E-1,1.604385972E0,7.569331169E0,1.395740032E0
7.756567710E-1,1.393581986E0,7.526212215E0,1.338248014E0
7.781589580E-1,1.163614035E0,7.459137917E0,1.328665972E0
7.806611460E-1,9.863470197E-1,7.463929176E0,1.395740032E0
7.831584370E-1,8.282439709E-1,7.511838913E0,1.448441029E0
7.856606250E-1,6.653500199E-1,7.497466087E0,1.510723948E0
7.881628640E-1,5.216199756E-1,7.487884045E0,1.568215966E0
7.906650520E-1,4.018450081E-1,7.521420956E0,1.702363968E0
7.931672390E-1,2.964429855E-1,7.564539909E0,1.831720948E0
7.956694790E-1,1.766680032E-1,7.550167084E0,1.937122941E0
7.981716660E-1,3.293799981E-2,7.607658863E0,2.076061964E0
8.006738540E-1,-9.641899914E-2,7.650777817E0,2.243746996E0
8.031760940E-1,-2.018209994E-1,7.684315205E0,2.406641006E0
8.056782810E-1,-2.401490062E-1,7.679523945E0,2.531207085E0
8.081804690E-1,-2.832680047E-1,7.732224941E0,2.641400099E0
8.106827080E-1,-3.311780095E-1,7.799298763E0,2.679728031E0
8.132261460E-1,-3.886699975E-1,7.890327930E0,2.732429028E0
8.157283330E-1,-4.509530067E-1,7.976565838E0,2.694101095E0
8.182305210E-1,-4.940719903E-1,8.048431396E0,2.636609077E0
8.207327600E-1,-4.844900072E-1,8.077177048E0,2.603071928E0
8.232349480E-1,-4.461619854E-1,8.072385788E0,2.521625042E0
8.257371350E-1,-3.838790059E-1,8.062804222E0,2.387476921E0
8.282393750E-1,-3.503420055E-1,8.110713959E0,2.253329039E0
8.307415620E-1,-3.072229922E-1,8.077177048E0,2.114389896E0
8.332437500E-1,-2.353579998E-1,8.048431396E0,2.037734032E0
8.357459890E-1,-1.970299929E-1,8.019684792E0,1.956287026E0
8.382481770E-1,-1.826570034E-1,7.933446884E0,1.917958975E0
8.407503640E-1,-1.539109945E-1,7.784925938E0,1.831720948E0
8.432502080E-1,-7.725500315E-2,7.602868080E0,1.874840021E0
8.457523960E-1,-1.976300031E-2,7.463929176E0,1.879631042E0
8.482545830E-1,4.252000153E-2,7.296244144E0,1.802975059E0
8.507567710E-1,1.622949988E-1,7.114185810E0,1.802975059E0
8.532590100E-1,1.814589947E-1,6.903381824E0,1.841302991E0
8.557611980E-1,2.676970065E-1,6.692577839E0,1.793393016E0
8.582634370E-1,2.868610024E-1,6.515310764E0,1.802975059E0
