"Time (s)","Acceleration x (m/s^2)","Acceleration y (m/s^2)","Acceleration z (m/s^2)"
0.000000000E0,-5.913678169E0,5.104437828E0,7.939172745E0
2.014161000E-3,-5.784391403E0,5.248090267E0,7.740454197E0
3.997803000E-3,-5.664681435E0,5.336675644E0,7.505822182E0
6.011963000E-3,-5.564124584E0,5.389348030E0,7.247248650E0
7.995606000E-3,-5.456385612E0,5.401319027E0,6.976703644E0
1.000976600E-2,-5.351040840E0,5.382165432E0,6.706159115E0
1.199340900E-2,-5.236119270E0,5.331887245E0,6.435614109E0
1.400756900E-2,-5.111620426E0,5.262455463E0,6.162675381E0
1.599121100E-2,-4.979939461E0,5.193023682E0,5.908889771E0
1.800537200E-2,-4.843470097E0,5.118803024E0,5.683835030E0
1.998901400E-2,-4.711789131E0,5.039794445E0,5.492298603E0
2.200317400E-2,-4.606443882E0,4.967968464E0,5.327098846E0
2.401733400E-2,-4.546588898E0,4.900930882E0,5.149928093E0
2.600097700E-2,-4.496310711E0,4.836287498E0,4.984727859E0
2.801513700E-2,-4.431667328E0,4.774038315E0,4.929661274E0
2.999878000E-2,-4.359841347E0,4.695029736E0,4.903325081E0
3.201294000E-2,-4.283226967E0,4.608838081E0,4.946420670E0
3.399658300E-2,-4.192247391E0,4.515464306E0,5.157110691E0
3.601074300E-2,-4.058171749E0,4.431667328E0,5.499481201E0
3.799438500E-2,-3.864241600E0,4.352658749E0,5.870582581E0
4.000854500E-2,-3.648763418E0,4.266467571E0,6.241683960E0
4.199218800E-2,-3.435679436E0,4.185064793E0,6.605602264E0
4.397583100E-2,-3.239354849E0,4.089296341E0,6.955155849E0
4.595947300E-2,-3.083731890E0,3.969586372E0,7.299921036E0
4.794311600E-2,-2.944868088E0,3.854664803E0,7.627926826E0
4.995727600E-2,-2.794033289E0,3.744531393E0,7.910442352E0
5.194091800E-2,-2.616862535E0,3.653551817E0,8.147468567E0
5.392456100E-2,-2.518700123E0,3.622427225E0,8.255207062E0
5.593872100E-2,-2.315192938E0,3.584120035E0,8.449137688E0
5.792236400E-2,-2.099714994E0,3.564966440E0,8.623914719E0
5.993652400E-2,-1.879448295E0,3.560178041E0,8.774748802E0
6.192016600E-2,-1.635239720E0,3.569754839E0,8.822632790E0
6.390380900E-2,-1.288080573E0,3.581725836E0,8.441955566E0
6.591796900E-2,-9.552865028E-1,3.579331636E0,8.092401505E0
6.790161200E-2,-7.900865674E-1,3.548206806E0,8.410830498E0
6.991577200E-2,-6.703764796E-1,3.512293816E0,8.911218643E0
7.189941500E-2,-5.195417404E-1,3.495534420E0,9.172186852E0
7.391357500E-2,-3.734954596E-1,3.502717018E0,9.188945770E0
7.589721700E-2,-2.896983922E-1,3.495534420E0,9.253589630E0
7.791137700E-2,-2.705447972E-1,3.473986626E0,9.397241592E0
7.989502000E-2,-2.849099934E-1,3.462015629E0,9.531316757E0
8.187866300E-2,-2.920926213E-1,3.478775024E0,9.617507935E0
8.386230500E-2,-2.705447972E-1,3.538630009E0,9.682151794E0
8.587646500E-2,-2.130839527E-1,3.634398222E0,9.732429504E0
8.786010800E-2,-1.125274822E-1,3.799597979E0,9.742006302E0
8.987426800E-2,1.268926859E-1,4.115632534E0,9.739612579E0
9.185791100E-2,1.165976286E0,5.149928093E0,9.689333916E0
9.387207100E-2,2.525882721E0,6.485892296E0,9.730035782E0
9.585571300E-2,2.887407303E0,6.940790653E0,9.792284966E0
9.786987400E-2,2.588132143E0,6.746860504E0,9.722852707E0
9.985351600E-2,2.147598982E0,6.378153324E0,9.607931137E0
1.018676760E-1,1.769315004E0,6.033388138E0,9.493009567E0
1.038513190E-1,1.470039845E0,5.729324818E0,9.270348549E0
1.058349610E-1,1.230619669E0,5.458779812E0,8.813055992E0
1.078186040E-1,1.019929886E0,5.190629482E0,8.154650688E0
1.098327640E-1,8.164227605E-1,4.922478676E0,7.493851185E0
1.118164070E-1,6.105214357E-1,4.661510944E0,6.976703644E0
1.138000490E-1,4.237737060E-1,4.417302132E0,6.643909931E0
1.158142090E-1,2.633621991E-1,4.163516521E0,6.476315498E0
1.177978520E-1,1.436520964E-1,3.912125587E0,6.440402508E0
1.198120120E-1,5.506663769E-2,3.675099611E0,6.483498096E0
1.217956550E-1,-7.182605099E-3,3.454833031E0,6.545747280E0
1.238098150E-1,-5.506663769E-2,3.272873640E0,6.591237068E0
1.257934580E-1,-1.292868853E-1,3.148375273E0,6.636727333E0
1.277771000E-1,-2.681505978E-1,3.100491285E0,6.701370716E0
1.297607430E-1,-5.051765442E-1,3.122039080E0,6.811503887E0
1.317749030E-1,-8.355764151E-1,3.184288263E0,6.971915245E0
1.337585450E-1,-1.206677675E0,3.260902643E0,7.175422668E0
1.357727060E-1,-1.541865945E0,3.337517262E0,7.400477409E0
1.377563480E-1,-1.802833915E0,3.394978046E0,7.635109425E0
1.397399910E-1,-1.989581585E0,3.447650433E0,7.900865555E0
1.417541510E-1,-2.123656988E0,3.507505417E0,8.185775757E0
1.437377930E-1,-2.221819162E0,3.564966440E0,8.461109161E0
1.457519540E-1,-2.324769735E0,3.620033026E0,8.722076416E0
1.477355960E-1,-2.439691544E0,3.679888010E0,8.959102631E0
1.497497560E-1,-2.549824715E0,3.746925592E0,9.150638580E0
1.517333990E-1,-2.652775526E0,3.804386616E0,9.279925346E0
1.537170410E-1,-2.738966703E0,3.857059002E0,9.351752281E0
1.557312020E-1,-2.794033289E0,3.900154591E0,9.378087997E0
1.577148440E-1,-2.820369720E0,3.945644379E0,9.361329079E0
1.597290040E-1,-2.817975283E0,3.983951569E0,9.306262016E0
1.617126470E-1,-2.779668093E0,4.010287762E0,9.224859238E0
1.637268070E-1,-2.703053713E0,4.029441357E0,9.117119789E0
1.657104500E-1,-2.602497339E0,4.041412354E0,8.997409821E0
1.676940920E-1,-2.477998734E0,4.031835556E0,8.882488251E0
1.696777350E-1,-2.351106167E0,4.000710964E0,8.762778282E0
1.716918950E-1,-2.245761156E0,3.960009575E0,8.631096840E0
1.736755380E-1,-2.152387381E0,3.909731388E0,8.494627953E0
1.756591800E-1,-2.104503393E0,3.873818398E0,8.374917984E0
1.776733400E-1,-2.130839586E0,3.840299606E0,8.281543732E0
1.796569830E-1,-2.262520552E0,3.804386616E0,8.219294548E0
1.816711430E-1,-2.482787132E0,3.751713991E0,8.207323074E0
1.836547860E-1,-2.719813108E0,3.667917013E0,8.259995461E0
1.856689460E-1,-2.925714493E0,3.552995205E0,8.372523308E0
1.876525880E-1,-3.071760893E0,3.418920040E0,8.552088737E0
1.896362310E-1,-3.167528868E0,3.284844637E0,8.767566681E0
1.916198740E-1,-3.220201254E0,3.165134668E0,8.999804497E0
1.936340340E-1,-3.234566450E0,3.043030262E0,9.244012833E0
1.956176760E-1,-3.236960649E0,2.923320293E0,9.485827446E0
1.976318360E-1,-3.234566450E0,2.808398485E0,9.725247383E0
1.996154790E-1,-3.227383852E0,2.691082716E0,9.933543205E0
2.015991220E-1,-3.208230257E0,2.585737944E0,1.011071396E1
2.036132820E-1,-3.169923067E0,2.497152328E0,1.026154804E1
2.055969240E-1,-3.112462282E0,2.410961151E0,1.039083576E1
2.076110840E-1,-3.047818661E0,2.327163935E0,1.051533413E1
2.095947270E-1,-2.987963676E0,2.248155355E0,1.062546730E1
2.116088870E-1,-2.916137695E0,2.188300371E0,1.072362900E1
2.135925300E-1,-2.806004286E0,2.138022184E0,1.078587818E1
2.156066900E-1,-2.657563925E0,2.111685991E0,1.081939793E1
2.175903330E-1,-2.473210335E0,2.111685991E0,1.083855152E1
2.196044930E-1,-2.310404539E0,2.056619167E0,1.080263805E1
2.215881350E-1,-2.269703150E0,1.812410712E0,1.067095661E1
2.235717780E-1,-2.245761156E0,1.561019540E0,1.056800652E1
2.255859380E-1,-2.154781580E0,1.438915253E0,1.051772785E1
2.276000980E-1,-1.994369984E0,1.458068848E0,1.049378586E1
2.295837410E-1,-1.812410712E0,1.589749932E0,1.048660374E1
2.315673830E-1,-1.654393315E0,1.769315004E0,1.048899746E1
2.335815430E-1,-1.529894829E0,1.953668594E0,1.049139214E1
2.355651860E-1,-1.426944256E0,2.121262789E0,1.047702694E1
2.375793460E-1,-1.343147159E0,2.264914751E0,1.044111347E1
2.395629890E-1,-1.288080573E0,2.367865562E0,1.040041256E1
2.416076660E-1,-1.247379065E0,2.415749550E0,1.036928749E1
2.435913090E-1,-1.213860273E0,2.444479942E0,1.034295177E1
2.455749520E-1,-1.197100878E0,2.466027737E0,1.031661510E1
2.475891120E-1,-1.223437071E0,2.480392933E0,1.028788471E1
2.495727540E-1,-1.266532660E0,2.482787132E0,1.024239445E1
2.515869150E-1,-1.314416766E0,2.475604534E0,1.015380955E1
2.535705570E-1,-1.355118155E0,2.470816135E0,1.001255131E1
2.555847170E-1,-1.362300754E0,2.437297344E0,9.816226959E0
2.575683600E-1,-1.187524080E0,2.157175779E0,9.581595421E0
2.595825200E-1,-9.433154464E-1,1.922544003E0,9.390059471E0
2.615661630E-1,-8.331822157E-1,2.159569979E0,9.100360870E0
2.635803230E-1,-8.451532125E-1,2.458845139E0,8.793902397E0
2.655639650E-1,-9.696516991E-1,2.621650934E0,8.655038834E0
2.675476080E-1,-1.108515382E0,2.712630510E0,8.676587105E0
2.695312500E-1,-1.103726983E0,2.767697096E0,8.698134422E0
2.715148930E-1,-9.648633003E-1,2.813186884E0,8.623914719E0
2.735290530E-1,-8.259995580E-1,2.832340717E0,8.489839554E0
2.755126960E-1,-7.733271718E-1,2.801215887E0,8.362946510E0
2.775268560E-1,-7.972691655E-1,2.712630510E0,8.259995461E0
2.795104990E-1,-8.499416113E-1,2.614468336E0,8.135497093E0
2.815246590E-1,-8.786720037E-1,2.561795712E0,7.951143742E0
2.835083010E-1,-8.403648138E-1,2.576161146E0,7.723694801E0
2.855224610E-1,-6.919242740E-1,2.643198729E0,7.491456985E0
2.875061040E-1,-4.189853072E-1,2.755726099E0,7.314286232E0
2.895202640E-1,-4.548983276E-2,2.901772499E0,7.264008045E0
2.915039070E-1,3.687070608E-1,3.057395458E0,7.335834026E0
2.934875490E-1,7.445967197E-1,3.193865061E0,7.400477409E0
2.954711920E-1,1.039083481E0,3.306392431E0,7.398083210E0
2.974853520E-1,1.242590666E0,3.383007050E0,7.354987621E0
2.994689950E-1,1.343147159E0,3.421314240E0,7.328651428E0
3.014526370E-1,1.338358760E0,3.433285236E0,7.340622425E0
3.034667970E-1,1.225831270E0,3.418920040E0,7.359776020E0
3.054504400E-1,1.031900883E0,3.390189648E0,7.352593422E0
3.074646000E-1,8.092401624E-1,3.380612850E0,7.302315235E0
3.094482430E-1,5.722141862E-1,3.399766445E0,7.247248650E0
3.114929200E-1,3.088520169E-1,3.430891037E0,7.216124058E0
3.134765630E-1,4.548983276E-2,3.483563423E0,7.201758862E0
3.154602060E-1,-1.819593310E-1,3.569754839E0,7.192182064E0
3.174743660E-1,-3.639186621E-1,3.689464808E0,7.173028469E0
3.194580080E-1,-4.548983276E-1,3.892971992E0,7.134721279E0
3.214721680E-1,-1.915361285E-1,4.436455727E0,7.082048416E0
3.234558110E-1,1.101332784E0,5.949591160E0,7.156269073E0
3.254699710E-1,2.205059767E0,6.897695065E0,7.386112213E0
3.274536140E-1,2.063801765E0,6.502651691E0,7.513004780E0
3.294677740E-1,1.369483352E0,5.793968201E0,7.369352818E0
3.314514160E-1,8.547300100E-1,5.418078423E0,6.943184853E0
3.334350590E-1,5.722141862E-1,5.252878666E0,6.485892296E0
3.354187020E-1,2.418143749E-1,5.003881454E0,6.210559368E0
3.374328620E-1,-2.346317619E-1,4.647145271E0,6.064512730E0
3.394165040E-1,-7.733271718E-1,4.235342979E0,5.913678169E0
3.414001470E-1,-1.340752959E0,3.766079187E0,5.719748020E0
3.434143070E-1,-1.848323703E0,3.311181068E0,5.470750809E0
3.453979500E-1,-2.238578558E0,2.918531895E0,5.245696068E0
3.474121100E-1,-2.537853718E0,2.595314741E0,5.106832027E0
3.493957520E-1,-2.806004286E0,2.319981337E0,5.085284233E0
3.514099130E-1,-2.995146275E0,2.087743998E0,5.130774021E0
3.533935550E-1,-2.789244890E0,1.726219416E0,5.363011837E0
3.554077150E-1,-2.418143749E0,1.371877551E0,5.616796970E0
3.573913580E-1,-2.525882721E0,1.371877551E0,5.607220173E0
3.594055180E-1,-2.959233284E0,1.642422318E0,5.422866821E0
3.613891610E-1,-3.347094059E0,1.877054095E0,5.291185856E0
3.633728030E-1,-3.557783842E0,1.941697598E0,5.250484467E0
3.653869630E-1,-3.672705412E0,1.865083098E0,5.319916248E0
3.673706060E-1,-3.732560396E0,1.735796213E0,5.485116005E0
3.693847660E-1,-3.857059002E0,1.675941229E0,5.643133640E0
3.713684090E-1,-4.077325344E0,1.719036818E0,5.722142220E0
3.733825690E-1,-4.228160381E0,1.778891921E0,5.714959621E0
3.753662110E-1,-4.185064793E0,1.781286120E0,5.645527840E0
3.773803720E-1,-3.885789394E0,1.896207690E0,5.578489780E0
3.793640140E-1,-3.282450438E0,2.492363930E0,5.710171223E0
3.813781740E-1,-2.870647907E0,2.796427488E0,5.935225964E0
3.833618170E-1,-2.813186884E0,2.631227732E0,6.095637321E0
3.853454590E-1,-2.896984100E0,2.420537949E0,6.174646378E0
3.873291020E-1,-2.954444885E0,2.327163935E0,6.215347767E0
3.893432620E-1,-2.978386879E0,2.267308950E0,6.210559368E0
3.913269050E-1,-3.014299870E0,2.195482969E0,6.155492783E0
3.933105470E-1,-3.088520288E0,2.130839586E0,6.131550789E0
3.953247080E-1,-3.208230257E0,2.090138197E0,6.227318764E0
3.973083500E-1,-3.335123062E0,2.090138197E0,6.409277916E0
3.993225100E-1,-3.442862034E0,2.099714994E0,6.629544735E0
4.013061530E-1,-3.536235809E0,2.070984364E0,6.847416878E0
4.032897950E-1,-3.624821424E0,2.013523579E0,7.031770229E0
4.053039560E-1,-3.715801001E0,1.920149803E0,7.175422668E0
4.072875980E-1,-3.821146011E0,1.807622313E0,7.273584843E0
4.093017580E-1,-3.943250179E0,1.690306425E0,7.343016624E0
4.112854010E-1,-4.058171749E0,1.546654344E0,7.383718014E0
4.132995610E-1,-4.161122322E0,1.369483352E0,7.371747017E0
4.152832040E-1,-4.316745758E0,1.206677675E0,7.283161640E0
4.172973640E-1,-4.565742493E0,1.070208192E0,7.134721279E0
4.192810060E-1,-4.857835293E0,9.457096457E-1,6.986280441E0
4.212646490E-1,-5.125985622E0,8.092401624E-1,6.864176273E0
4.232788090E-1,-5.365406036E0,6.584054828E-1,6.773196697E0
4.252624520E-1,-5.578489780E0,5.123591423E-1,6.696582317E0
4.272766120E-1,-5.748478413E0,3.663128614E-1,6.651092529E0
4.292602540E-1,-5.849034786E0,2.059013397E-1,6.660669327E0
4.312744150E-1,-5.872976780E0,3.830722719E-2,6.722918510E0
4.332580570E-1,-5.825092793E0,-1.101332754E-1,6.828263283E0
4.352722170E-1,-5.705382824E0,-2.370259613E-1,6.959944248E0
4.372558600E-1,-5.518634796E0,-3.303998411E-1,7.139509678E0
4.392700200E-1,-5.293580055E0,-3.782838583E-1,7.371747017E0
4.412536630E-1,-5.027823448E0,-4.070142806E-1,7.659051418E0
4.432678230E-1,-4.683058739E0,-4.237737060E-1,7.982268333E0
4.452514650E-1,-4.278438568E0,-4.381389022E-1,8.281543732E0
4.472656250E-1,-3.940855980E0,-3.878606856E-1,8.520963669E0
4.492492680E-1,-3.720589399E0,-2.585737705E-1,8.693346024E0
4.512329110E-1,-3.555389643E0,-9.576806426E-2,8.820239067E0
4.532470710E-1,-3.380612850E0,3.830722719E-2,8.901641846E0
4.552307130E-1,-3.198653460E0,1.340752989E-1,8.937555313E0
4.572448740E-1,-3.066972494E0,2.154781520E-1,8.944737434E0
4.592285160E-1,-2.973598480E0,2.992752194E-1,8.951920509E0
4.612426760E-1,-2.894589901E0,3.663128614E-1,8.951920509E0
4.632263190E-1,-2.825158119E0,3.998316824E-1,8.927978516E0
4.652404790E-1,-2.765302896E0,4.165911078E-1,8.872911453E0
4.672241220E-1,-2.748543501E0,3.926490843E-1,8.767566681E0
4.692077640E-1,-2.815581083E0,3.399766386E-1,8.657433510E0
4.711914070E-1,-2.961627483E0,3.471592367E-1,8.578424454E0
4.731750490E-1,-3.148375273E0,4.572925270E-1,8.492233276E0
4.751892090E-1,-3.318363667E0,6.057330370E-1,8.389283180E0
4.771728520E-1,-3.406949043E0,7.422025204E-1,8.259995461E0
4.791870120E-1,-3.435679436E0,8.595184088E-1,8.145073891E0
4.811706550E-1,-3.404554844E0,9.361328483E-1,8.082824707E0
4.831848150E-1,-3.306392431E0,9.696516991E-1,8.073247910E0
4.851684580E-1,-3.208230257E0,1.003170490E0,8.082824707E0
4.871521000E-1,-3.141192675E0,1.048660398E0,8.075642586E0
4.891662600E-1,-3.114856482E0,1.120486379E0,8.025363922E0
4.911499030E-1,-3.119644880E0,1.201889277E0,7.936778545E0
4.931640630E-1,-3.160346270E0,1.285686255E0,7.814674377E0
4.951477060E-1,-3.232172251E0,1.374271750E0,7.678205013E0
4.971618660E-1,-3.332728863E0,1.467645645E0,7.548917770E0
4.991455080E-1,-3.450044632E0,1.561019540E0,7.431602001E0
5.011596680E-1,-3.581725836E0,1.651999116E0,7.323863029E0
5.031433110E-1,-3.689464808E0,1.738190413E0,7.237671852E0
5.051574710E-1,-3.775655985E0,1.826775908E0,7.151480675E0
5.071411140E-1,-3.857059002E0,1.920149803E0,7.077260017E0
5.091247560E-1,-3.938461781E0,2.011129379E0,7.000645638E0
5.111083990E-1,-4.017470360E0,2.087743998E0,6.902483463E0
5.131225590E-1,-4.089296341E0,2.161964178E0,6.789956093E0
5.151062020E-1,-4.151545525E0,2.231395960E0,6.660669327E0
5.170898440E-1,-4.185064793E0,2.281674147E0,6.512228489E0
5.191040040E-1,-4.192247391E0,2.312798738E0,6.337451935E0
5.210876470E-1,-4.180276394E0,2.341529369E0,6.162675381E0
5.231018070E-1,-4.139574528E0,2.370259762E0,5.995080948E0
5.250854500E-1,-4.055777550E0,2.389413357E0,5.813121796E0
5.270996100E-1,-3.921702385E0,2.418143749E0,5.612008572E0
5.290832520E-1,-3.742137194E0,2.425326347E0,5.406107426E0
5.310974130E-1,-3.557783842E0,2.375048161E0,5.193023682E0
5.330810550E-1,-3.385401249E0,2.267308950E0,4.970362663E0
5.350952150E-1,-3.234566450E0,2.116474390E0,4.740519524E0
5.370788580E-1,-3.131615877E0,1.924938202E0,4.510675907E0
5.390625000E-1,-3.098097086E0,1.819593310E0,4.395754337E0
5.410461430E-1,-3.040636063E0,1.606509328E0,4.177882195E0
5.430297860E-1,-2.968810081E0,1.407790542E0,3.995922565E0
5.450439460E-1,-2.863465309E0,1.233013868E0,3.854664803E0
5.470275880E-1,-2.707842112E0,1.084573388E0,3.756502390E0
5.490417490E-1,-2.504334927E0,9.720458984E-1,3.708618402E0
5.510253910E-1,-2.269703150E0,8.619126081E-1,3.711012602E0
5.530090340E-1,-2.037465572E0,7.350199223E-1,3.749319792E0
5.550231940E-1,-1.838746905E0,5.602431893E-1,3.823540211E0
5.570068360E-1,-1.692700624E0,3.303998411E-1,3.921702385E0
5.590209970E-1,-1.620874524E0,4.309562966E-2,4.027047157E0
5.610046390E-1,-1.632845521E0,-2.753331959E-1,4.122815132E0
5.630187990E-1,-1.707065821E0,-5.770025849E-1,4.211400986E0
5.650024420E-1,-1.829170108E0,-8.403648138E-1,4.309563160E0
5.669860840E-1,-2.006340981E0,-1.065419793E0,4.410119534E0
5.690002450E-1,-2.243366957E0,-1.264138460E0,4.489128113E0
5.709838870E-1,-2.521094322E0,-1.438915253E0,4.537012100E0
5.729980470E-1,-2.829946518E0,-1.577778935E0,4.556165695E0
5.749816900E-1,-3.160346270E0,-1.666364431E0,4.553771496E0
5.769958500E-1,-3.473986626E0,-1.711854219E0,4.537012100E0
5.789794930E-1,-3.773261786E0,-1.702277422E0,4.529829502E0
5.809936530E-1,-4.055777550E0,-1.644816518E0,4.537012100E0
5.829772950E-1,-4.311957359E0,-1.539471745E0,4.532223701E0
5.849609380E-1,-4.560954094E0,-1.407790542E0,4.508281708E0
5.869445810E-1,-4.802768707E0,-1.268926859E0,4.462791920E0
5.889587410E-1,-5.020640850E0,-1.110909581E0,4.405331135E0
5.909423830E-1,-5.214571476E0,-9.481038451E-1,4.350264549E0
5.929565430E-1,-5.379771233E0,-7.924807668E-1,4.297592163E0
5.949401860E-1,-5.511452198E0,-6.392518282E-1,4.249708176E0
5.969543460E-1,-5.614402771E0,-4.764461517E-1,4.216189384E0
5.989379890E-1,-5.691017628E0,-3.208230138E-1,4.192247391E0
6.009216310E-1,-5.774814606E0,-1.867477298E-1,4.163516521E0
6.029357910E-1,-5.868188381E0,-6.464344263E-2,4.137180328E0
6.049194340E-1,-5.980715752E0,4.070143029E-2,4.113238335E0
6.069335940E-1,-6.090848923E0,1.388636976E-1,4.077325344E0
6.089172370E-1,-6.174646378E0,2.346317619E-1,4.031835556E0
6.109313970E-1,-6.217741966E0,3.471592367E-1,3.986345768E0
6.129150400E-1,-6.217741966E0,4.692635238E-1,3.950432777E0
6.148986820E-1,-6.177040577E0,5.865794420E-1,3.928884983E0
6.168823250E-1,-6.098031521E0,7.062895298E-1,3.936067581E0
6.188964850E-1,-5.999869347E0,8.140285611E-1,3.952826977E0
6.208801270E-1,-5.923254967E0,8.810662031E-1,3.964797974E0
6.228637700E-1,-5.904101372E0,8.834604025E-1,3.974374771E0
6.248779300E-1,-5.956773758E0,8.116343617E-1,3.969586372E0
6.268615730E-1,-6.064512730E0,6.943184733E-1,3.974374771E0
6.288757330E-1,-6.189011574E0,5.458779931E-1,4.005499363E0
6.308593750E-1,-6.287173748E0,3.998316824E-1,4.070142746E0
6.328430180E-1,-6.351817131E0,2.633621991E-1,4.173093796E0
6.348571780E-1,-6.385335922E0,1.436520964E-1,4.331110954E0
6.368408210E-1,-6.387730122E0,2.394201607E-2,4.525041103E0
6.388549810E-1,-6.358999729E0,-1.053448766E-1,4.733336926E0
6.408386240E-1,-6.313509941E0,-2.489969730E-1,4.944026470E0
6.428527840E-1,-6.256049156E0,-4.309563041E-1,5.140350819E0
6.448364260E-1,-6.200982571E0,-6.416460276E-1,5.331887245E0
6.468200690E-1,-6.143521786E0,-8.595184088E-1,5.552153587E0
6.488037110E-1,-6.100425720E0,-1.065419793E0,5.820304394E0
6.507873540E-1,-6.098031521E0,-1.256955862E0,6.150704384E0
6.527709970E-1,-6.167463779E0,-1.424550056E0,6.543353081E0
6.547851570E-1,-6.327875137E0,-1.570596337E0,6.945579052E0
6.567687990E-1,-6.576871872E0,-1.707065821E0,7.309497833E0
6.587524420E-1,-6.888118267E0,-1.831564307E0,7.572859764E0
6.607666020E-1,-7.256825447E0,-1.953668594E0,7.687781811E0
6.627502450E-1,-7.678205013E0,-2.090138197E0,7.675810814E0
6.647644050E-1,-8.116343498E0,-2.245761156E0,7.568071365E0
6.667480470E-1,-8.528146744E0,-2.420537949E0,7.376535416E0
6.687622080E-1,-8.892065048E0,-2.580949545E0,7.158663273E0
6.707458500E-1,-9.176975250E0,-2.693476915E0,6.981492043E0
6.727600100E-1,-9.356540680E0,-2.736572504E0,6.868964672E0
6.747436530E-1,-9.423578262E0,-2.726995707E0,6.799532890E0
6.767272950E-1,-9.411606789E0,-2.667140722E0,6.785167694E0
