"Time (s)","Acceleration x (m/s^2)","Acceleration y (m/s^2)","Acceleration z (m/s^2)"
0.000000000E0,7.704290867E0,1.307976723E1,-2.619542599E0
1.007171900E-2,6.080162525E0,1.349133205E1,-8.321040869E-1
1.257927100E-2,5.471189022E0,1.291167068E1,-6.981059909E-1
1.508677100E-2,4.858027935E0,1.189113235E1,-3.918247223E-1
1.759078100E-2,4.326223373E0,1.071745300E1,-1.519442350E-1
2.009822900E-2,3.693919897E0,9.562915802E0,1.555334684E-2
2.260572900E-2,3.200400352E0,8.580661774E0,1.555334684E-2
2.511328100E-2,3.052045345E0,7.867002487E0,1.112662554E-1
2.762078100E-2,2.788236618E0,7.277770042E0,3.942175210E-1
3.012828100E-2,2.314457655E0,6.889534473E0,5.234299302E-1
3.263578100E-2,1.547558069E0,6.640681267E0,5.282155871E-1
3.514328100E-2,8.673982024E-1,6.626324177E0,6.574280262E-1
3.765078100E-2,2.494517565E-1,6.870391846E0,6.765705943E-1
4.015833400E-2,-3.637090325E-1,7.282555580E0,5.282155871E-1
4.266583400E-2,-6.705885530E-1,7.900502205E0,1.208375469E-1
4.496812500E-2,-5.988038778E-1,8.417949677E0,-3.577269912E-1
4.747562500E-2,-1.052841991E-1,8.561519623E0,-5.114658475E-1
4.998312500E-2,7.573283911E-1,8.499305725E0,-3.768695593E-1
5.249062500E-2,1.413560033E0,8.432307243E0,-1.423729509E-1
5.499812500E-2,1.557129383E0,8.551948547E0,-9.451649338E-2
5.750567700E-2,1.226919770E0,8.863613129E0,-3.720839322E-1
6.001317700E-2,7.238288522E-1,9.457631111E0,-7.028916478E-1
6.252067700E-2,2.829512656E-1,1.021914768E1,-9.954141974E-1
6.502817700E-2,2.733799815E-1,1.101954651E1,-1.033699393E0
6.753567700E-2,5.605186820E-1,1.144128132E1,-9.086744189E-1
7.004317700E-2,1.178465128E0,1.144606686E1,-1.014556766E0
7.255067700E-2,1.921436548E0,1.112961674E1,-1.124626637E0
7.481463600E-2,2.659024239E0,1.064088249E1,-1.253839016E0
7.732213600E-2,3.128615618E0,9.893723488E0,-1.469791293E0
7.982963600E-2,3.349353552E0,9.002396584E0,-1.685145378E0
8.233713600E-2,3.354139090E0,8.072785378E0,-1.694716692E0
8.484463600E-2,3.152543783E0,6.812964439E0,-1.484148264E0
8.735218800E-2,3.421138287E0,6.534798622E0,-1.465005636E0
8.985968800E-2,3.440280676E0,6.419943333E0,-1.536790371E0
9.236718800E-2,3.233899832E0,6.075376511E0,-1.119840980E0
9.487468800E-2,3.305684566E0,5.706283569E0,-4.540380836E-1
9.738218800E-2,3.392424345E0,5.677569866E0,-1.232303679E-1
9.988968800E-2,3.387638569E0,5.974279881E0,-8.015955985E-2
1.023971880E-1,3.478565931E0,6.343372822E0,2.841476798E-1
1.046584380E-1,3.512065411E0,6.588038921E0,3.469592705E-2
1.071659380E-1,3.454637766E0,6.631109715E0,-5.306084156E-1
1.096734380E-1,3.521636724E0,6.726822853E0,-3.802793503E0
1.121809380E-1,3.492922783E0,5.389832973E0,-1.400279808E1
1.146884380E-1,5.107480049E0,2.088934183E0,-1.375873089E-1
1.171959900E-1,5.126622677E0,-6.323033571E-1,1.104467106E1
1.197034900E-1,3.789632797E0,-1.039681435E0,6.723233223E0
1.222109900E-1,1.178465128E0,1.648056626E0,4.619942188E0
1.247184900E-1,-1.962114573E-1,4.106083870E0,5.530411243E0
1.272259900E-1,-7.375875711E-1,4.407579422E0,5.511268616E0
1.297334900E-1,-1.101894855E0,4.053441525E0,5.602196217E0
1.322409900E-1,-6.753742099E-1,3.765704632E0,6.344569206E0
1.345022400E-1,6.221338734E-2,3.171686411E0,6.871588230E0
1.370097400E-1,1.168893814E0,2.649452925E0,7.192824841E0
1.395172400E-1,2.424527645E0,2.395813704E0,7.436892986E0
1.420247400E-1,3.751347780E0,2.122433662E0,6.976872444E0
1.445322400E-1,4.905884743E0,1.887937069E0,5.985047817E0
1.470397920E-1,5.610570908E0,1.811366796E0,5.094319344E0
1.495472920E-1,5.792425632E0,1.897508383E0,4.667798996E0
1.520547920E-1,5.610570908E0,2.184647083E0,4.423132420E0
1.545622920E-1,5.064409256E0,2.802593470E0,4.088137627E0
1.570697920E-1,4.695316315E0,3.343969584E0,4.054637909E0
1.595772920E-1,4.451248169E0,3.972085476E0,4.102494240E0
1.620847920E-1,4.292723656E0,4.585246563E0,4.064209461E0
1.643461460E-1,4.331008911E0,4.771886349E0,4.097708702E0
1.668536460E-1,4.297509670E0,4.968696117E0,3.973282099E0
1.693611460E-1,4.354937077E0,5.322834015E0,3.695116282E0
1.718686460E-1,4.436891556E0,5.241477966E0,3.407977581E0
1.743761460E-1,4.451248169E0,5.332405090E0,3.019742250E0
1.768836980E-1,4.704887390E0,4.925027370E0,2.770290375E0
1.793911980E-1,4.580460548E0,4.527818680E0,2.377867460E0
1.818986980E-1,4.613960266E0,4.015156269E0,1.917847395E0
1.844061980E-1,4.594817638E0,3.545564890E0,1.386042476E0
1.869136980E-1,4.359723091E0,3.128615618E0,8.255237937E-1
1.894211980E-1,4.096512318E0,2.735594511E0,2.410768867E-1
1.919286980E-1,3.660420418E0,2.477169752E0,-2.620140910E-1
1.941900000E-1,3.162115097E0,1.959721804E0,-6.550351977E-1
1.966975000E-1,2.663809776E0,1.192822099E0,-9.858429432E-1
1.992050000E-1,2.668595552E0,5.557330847E-1,-7.268198729E-1
2.017125000E-1,3.013760090E0,2.925225794E-1,-1.062413216E0
2.042200000E-1,3.238685369E0,1.633101404E-1,-1.618146300E0
2.067275520E-1,3.343969584E0,4.408775866E-1,-2.082952023E0
2.092350520E-1,3.689134359E0,1.222134113E0,-2.417947292E0
2.117425520E-1,5.251049519E0,3.526422262E0,-3.960719585E0
2.142500520E-1,6.305087566E0,5.083551884E0,-4.549952030E0
2.167575520E-1,6.588038921E0,5.624927998E0,-7.357929707E0
2.192650520E-1,6.501298904E0,5.907280922E0,-1.109492016E1
2.217725520E-1,6.640681267E0,6.396014690E0,-1.395972729E1
2.240338540E-1,6.966104984E0,7.013961315E0,-1.327956772E1
2.265413540E-1,6.927819729E0,7.545766354E0,-1.112841988E1
2.290488540E-1,5.706283569E0,7.493124008E0,-7.621140003E0
2.315563540E-1,3.454637766E0,7.728219032E0,-4.205385685E0
2.340638540E-1,1.063609719E0,8.341380119E0,-9.284151793E-1
2.365714060E-1,-4.552344978E-1,9.376275063E0,1.706680775E0
2.390789060E-1,-9.966106415E-1,1.045424175E1,2.837887764E0
2.415864060E-1,-8.141579032E-1,1.115832996E1,2.971885681E0
2.440939060E-1,-6.466603279E-1,1.138385391E1,2.669791937E0
2.466014060E-1,-1.245464206E0,1.122532940E1,3.876971006E0
2.491089060E-1,-2.679961324E-1,1.268196011E1,5.276174068E0
2.516164060E-1,1.196411327E-1,1.394656658E1,1.701895118E0
2.538777610E-1,9.439685345E-1,1.453579903E1,9.547362328E-1
2.563852610E-1,2.088934183E0,1.554676723E1,-9.451649338E-2
2.588927610E-1,2.405385017E0,1.568136311E1,-2.494517565E0
2.614002610E-1,2.558525562E0,1.495274830E1,-4.353740692E0
2.639077610E-1,2.846262455E0,1.380299759E1,-4.871188641E0
2.664153130E-1,2.927618504E0,1.290209961E1,-4.042075634E0
2.689228130E-1,2.951546669E0,1.233679581E1,-3.548556089E0
2.714303130E-1,2.927618504E0,1.195394325E1,-3.223132133E0
2.739378130E-1,2.682952404E0,1.114875889E1,-3.002394199E0
2.764453130E-1,2.941975355E0,1.023350430E1,-2.547757864E0
2.789528130E-1,2.189432621E0,1.001815033E1,-2.130808592E0
2.814603130E-1,1.346560955E0,9.649057388E0,-2.202593327E0
2.837216150E-1,8.673982024E-1,8.571090698E0,-1.905285001E0
2.862291150E-1,6.083751321E-1,7.421339512E0,-1.263410330E0
2.887366150E-1,5.748756528E-1,6.061019897E0,-8.608179688E-1
2.912441150E-1,6.807580590E-1,2.620738983E0,-1.057627559E0
2.937516150E-1,2.871387079E-2,-3.693919897E0,-1.024128079E0
2.962591670E-1,4.983053207E-1,-5.883352757E0,-1.953141451E0
2.987666670E-1,1.854437590E0,-5.423332691E0,-8.081758618E-1
3.012741670E-1,2.673381090E0,-4.666004181E0,-8.608179688E-1
3.037816670E-1,2.980260611E0,-3.051447153E0,-1.565504193E0
3.062891670E-1,2.558525562E0,-1.561915040E0,-2.791825771E0
3.087966670E-1,1.044467092E0,-1.465603828E0,-4.022933006E0
3.113041670E-1,-5.605186820E-1,-3.061018467E0,-5.493920803E0
3.135654690E-1,-5.264209956E-2,-2.045863390E0,-1.962712765E0
3.160729690E-1,6.759724021E-1,6.562315822E-1,-6.550351977E-1
3.185804690E-1,5.030909777E-1,4.915455818E0,-4.377668858E0
3.210879690E-1,2.159522474E-1,9.744770050E0,-5.733202934E0
3.235954690E-1,6.179464459E-1,1.359721470E1,-6.198009014E0
3.261030210E-1,1.106680512E0,1.513041592E1,-5.398207664E0
3.286105210E-1,1.356132269E0,1.550848198E1,-3.290131092E0
3.311180210E-1,1.231705427E0,1.584407520E1,-7.316055298E-1
3.336255210E-1,6.951149702E-1,1.566700649E1,4.181457460E-1
3.361330730E-1,2.925225794E-1,1.432523060E1,6.963114142E-1
3.386405210E-1,4.121637046E-1,1.178106213E1,5.856433511E-1
3.411480210E-1,5.222335458E-1,9.874580383E0,6.526423693E-1
3.434093750E-1,4.073780477E-1,6.607181549E0,-3.438486099E0
3.459168750E-1,-6.275177598E-1,1.006181955E0,-1.140120125E1
3.484243750E-1,-2.668595552E0,-1.671984792E0,-1.096510983E1
3.509318750E-1,-1.743769526E0,9.918249846E-1,3.354737282E0
3.534393750E-1,6.610172391E-1,3.257827997E0,8.419146538E0
3.559469270E-1,6.562315822E-1,4.067798615E0,7.283751965E0
3.584544270E-1,5.653043389E-1,4.024727821E0,5.276174068E0
3.609619270E-1,1.911865234E0,3.929014683E0,4.485944271E0
3.634694270E-1,3.727419376E0,3.708276987E0,4.749154568E0
3.659769270E-1,5.069194794E0,4.039084435E0,5.170889854E0
3.684844270E-1,6.252445698E0,4.446462631E0,4.562514782E0
3.709919270E-1,7.268198967E0,4.795814991E0,2.636292458E0
3.732532290E-1,8.413164139E0,5.064409256E0,1.064806059E-1
3.757607290E-1,9.333204269E0,5.648856163E0,-1.680359721E0
3.782682290E-1,9.845867157E0,6.376872540E0,-2.370090723E0
3.807757290E-1,9.817152977E0,6.990033150E0,-2.154736757E0
3.832832290E-1,9.567701340E0,7.517052174E0,-1.306481123E0
3.857907810E-1,8.571090698E0,7.914859295E0,8.255238086E-2
3.882982810E-1,7.406982422E0,8.245666504E0,1.630110383E0
3.908057810E-1,6.698108673E0,8.518448830E0,2.684148788E0
3.933132810E-1,7.339983463E0,8.480163574E0,3.642474174E0
3.958207810E-1,8.633303642E0,8.432307243E0,4.581656933E0
3.983282810E-1,9.462417603E0,8.101499557E0,4.907081127E0
4.008357810E-1,9.865009308E0,7.800003529E0,4.715655327E0
4.030971360E-1,1.045902824E1,7.637291908E0,4.356133461E0
4.056046360E-1,1.106740284E1,8.001000404E0,4.179064751E0
4.081121360E-1,1.154656601E1,8.978468895E0,4.092923164E0
4.106196360E-1,1.020479012E1,1.004207802E1,3.752544165E0
4.131271360E-1,7.766504288E0,1.119661522E1,1.922633052E0
4.156346880E-1,4.728815556E0,1.219322586E1,4.426721856E-2
4.181421880E-1,3.013760090E0,1.317069435E1,-7.411768436E-1
4.206496880E-1,1.628913999E0,1.364507103E1,-1.311266780E0
4.231571880E-1,7.668996453E-1,1.389871025E1,-1.402194023E0
4.256646880E-1,9.200403094E-1,1.387478256E1,-1.177268744E0
4.281721880E-1,7.334001660E-1,1.388435364E1,-9.134600163E-1
4.306796880E-1,3.738785386E-1,1.387478256E1,-2.189432681E-1
4.329409900E-1,4.785645287E-3,1.354935837E1,4.564309120E-1
4.354484900E-1,-7.040880919E-1,1.303669643E1,1.299900889E0
4.379559900E-1,-1.451246977E0,1.248574829E1,1.893919110E0
4.404634900E-1,-2.294716835E0,1.153220844E1,2.037488461E0
4.429709900E-1,-3.128615618E0,1.069830990E1,1.946561217E0
4.454785420E-1,-3.396611691E0,9.941579819E0,2.281556368E0
4.479860420E-1,-2.697309256E0,9.208179474E0,1.779063582E0
4.504935420E-1,-1.384247899E0,8.427521706E0,1.764706731E0
4.530010420E-1,-2.488535494E-1,7.919644833E0,2.171486616E0
4.555085420E-1,1.336989641E0,7.555337429E0,2.363510609E0
4.580160420E-1,3.967299938E0,6.664609432E0,1.429113269E0
4.605235420E-1,6.271588326E0,5.629713535E0,4.851447940E-1
4.627848440E-1,7.311269760E0,4.814957142E0,-2.763710022E-1
4.652923440E-1,7.244270325E0,4.575675011E0,-5.545366406E-1
4.677998440E-1,6.515655994E0,4.853242397E0,-1.067198873E0
4.703073440E-1,5.744568825E0,5.145765305E0,-1.153340459E0
4.728148440E-1,5.447260857E0,5.227120876E0,-1.076770186E0
4.753223960E-1,5.519643784E0,5.624927998E0,-2.667997181E-1
4.778298960E-1,5.475974560E0,6.491727829E0,1.740778536E-1
4.803373960E-1,5.346762180E0,7.272984505E0,5.138586760E-1
4.828448960E-1,4.987838745E0,7.981858253E0,1.031306505E0
4.853523960E-1,3.238685369E0,7.445267677E0,2.190629244E0
4.878598960E-1,1.744367719E0,6.424728870E0,2.760719061E0
4.903673960E-1,2.582453728E0,6.070590973E0,3.494119167E0
4.926287500E-1,4.144368649E0,7.134200573E0,4.193421841E0
4.951362500E-1,4.523033142E0,8.053643227E0,2.904886723E0
4.976437500E-1,4.206582069E0,8.403593063E0,2.410768867E-1
5.001512500E-1,3.765704632E0,8.034500122E0,-1.546361685E0
5.026587500E-1,3.392424345E0,1.006122112E1,6.191428304E-1
5.051663020E-1,3.099901676E0,1.254796219E1,9.978070259E-1
5.076738020E-1,6.610172391E-1,1.062652493E1,-8.368897438E-1
5.101813020E-1,-4.313062727E-1,7.526623726E0,-1.761715651E0
5.126888020E-1,1.054038405E0,8.370093346E0,6.430710793E0
5.151963020E-1,1.202393413E0,8.992825508E0,9.976275444E0
5.177038020E-1,7.178468257E-2,8.005785942E0,7.283751965E0
5.202113020E-1,-2.632105052E-1,7.656434059E0,6.531209469E0
5.224733340E-1,-7.902296782E-1,8.810971260E0,6.651448727E0
5.249767710E-1,-1.882553220E0,1.014257717E1,5.362315655E0
5.274802090E-1,-2.544168711E0,1.230329609E1,5.410171986E0
5.299836460E-1,-2.093719721E0,1.450230026E1,5.908477306E0
5.324870840E-1,-3.109472990E0,1.666780472E1,5.621338367E0
5.349905210E-1,-4.465006828E0,1.874238205E1,5.559125423E0
5.374940110E-1,-5.135595798E0,1.940878296E1,4.873581409E0
5.399974480E-1,-5.676971912E0,1.947099686E1,2.866601467E0
5.425008860E-1,-5.753541946E0,1.867538261E1,9.499505758E-1
5.450043230E-1,-5.840281963E0,1.694597054E1,-1.663011760E-1
5.475077610E-1,-6.793223381E0,1.453101349E1,-1.440479279E0
5.500112500E-1,-7.813762188E0,1.176191998E1,-2.145165443E0
5.523171880E-1,-8.206783295E0,9.400203705E0,-1.024128079E0
5.548206250E-1,-1.102851963E1,8.437092781E0,-7.316055298E-1
5.573240630E-1,-1.603550148E1,8.015357971E0,-6.102295876E0
5.598275000E-1,-9.040681839E0,4.853242397E0,-8.023732185E0
5.623309380E-1,6.726822853E0,9.696913719E0,7.508677483E0
5.648343750E-1,1.073659515E1,1.676890182E1,1.611326790E1
5.673378650E-1,5.437689304E0,2.002672958E1,1.199342537E1
5.698413020E-1,4.983053207E-1,2.344726944E1,8.294719696E0
5.723447400E-1,-2.356930256E0,2.607279396E1,5.467599869E0
5.748481770E-1,-2.855235577E0,2.597708130E1,-1.950150430E-1
5.773516150E-1,-2.031506538E0,2.487518692E1,-4.828117847E0
5.798551040E-1,-1.715055585E0,2.325584412E1,-7.228118896E0
5.821610420E-1,-1.581057549E0,2.142533302E1,-8.105088234E0
5.846644790E-1,-2.337787628E0,2.028993988E1,-8.267800331E0
5.871679170E-1,-2.931805849E0,1.948535347E1,-7.573283672E0
5.896713540E-1,-3.147758245E0,1.893919182E1,-6.437889099E0
5.921747920E-1,-3.641277790E0,1.893919182E1,-4.780261517E0
5.946782290E-1,-3.827918053E0,1.901576233E1,-2.586043119E0
5.971817190E-1,-3.114258766E0,1.909711838E1,1.208375469E-1
5.996851560E-1,-1.997408748E0,1.857488441E1,2.281556368E0
6.021885940E-1,-2.919243574E-1,1.729113388E1,3.335594654E0
6.046920310E-1,5.796613097E-1,1.707039642E1,4.830510616E0
6.071954690E-1,4.791627228E-1,1.786601067E1,5.621338367E0
6.096989590E-1,3.499503136E-1,1.861795425E1,4.442873478E0
6.120048960E-1,2.925225794E-1,1.914497375E1,3.096312523E0
6.145083340E-1,2.398804724E-1,1.948056793E1,1.812563181E0
6.170117710E-1,2.542374134E-1,1.981077766E1,5.521438122E-1
6.195152090E-1,2.733799815E-1,1.985384750E1,-9.810572863E-1
6.220186460E-1,4.307080805E-2,1.945185280E1,-2.006381750E0
6.245220840E-1,-5.461617708E-1,1.925504303E1,-2.499303341E0
6.270255730E-1,-9.583254457E-1,1.917847443E1,-2.595614433E0
6.295290110E-1,-8.524430394E-1,1.848395729E1,-2.121237278E0
6.320324480E-1,-3.828516230E-2,1.721396637E1,-1.905285001E0
6.345358860E-1,9.571290575E-3,1.639023781E1,-1.551147223E0
6.370393230E-1,-1.149751306E0,1.632323837E1,-3.672982752E-1
6.395428130E-1,-1.480558991E0,1.618385506E1,6.191428304E-1
6.418487500E-1,-7.663014531E-1,1.549412441E1,6.765705943E-1
6.443521880E-1,-5.700899959E-1,1.523091412E1,1.424327731E0
6.468556250E-1,-5.174478889E-1,1.477567959E1,1.769492388E0
6.493590630E-1,-5.413761139E-1,1.430608845E1,1.716252089E0
6.518625000E-1,-9.002995491E-1,1.415773296E1,1.692323804E0
6.543659380E-1,-1.542772412E0,1.420559025E1,1.941775560E0
6.568694270E-1,-2.088934183E0,1.485703564E1,4.356133461E0
6.593728650E-1,-8.715856671E-1,1.361635685E1,4.217350006E0
6.618763020E-1,-4.600201547E-1,1.241815090E1,3.388834953E0
6.643797400E-1,-1.063609719E0,1.241336536E1,3.287738323E0
6.668831770E-1,-1.973480463E0,1.272503090E1,3.024527788E0
6.693866670E-1,-2.524427891E0,1.286859989E1,3.349951744E0
6.716926040E-1,-2.711666346E0,1.290209961E1,3.551547050E0
6.741960420E-1,-2.749951363E0,1.305105305E1,3.992424488E0
6.766994790E-1,-2.687737942E0,1.327119255E1,4.226921082E0
6.792029170E-1,-2.663809776E0,1.357807255E1,4.303491592E0
6.817063540E-1,-2.644667149E0,1.396092415E1,4.045066833E0
6.842097920E-1,-2.510071039E0,1.418166161E1,3.384049416E0
6.867132810E-1,-2.505285263E0,1.437308788E1,3.024527788E0
6.892167190E-1,-2.816950560E0,1.449751377E1,3.043670416E0
6.917201560E-1,-2.620738983E0,1.450708580E1,3.752544165E0
6.942235940E-1,-2.356930256E0,1.446880054E1,4.481158733E0
6.967270310E-1,-2.060220242E0,1.424387455E1,5.146961689E0
6.992305210E-1,-1.743769526E0,1.382213974E1,5.285745144E0
7.015365110E-1,-8.715856671E-1,1.340997601E1,6.177071571E0
7.040399480E-1,2.159522474E-1,1.305583858E1,6.833303452E0
7.065433860E-1,1.087537885E0,1.268196011E1,6.589235306E0
7.090468230E-1,1.600200176E0,1.257188988E1,5.764907837E0
7.115502610E-1,2.324028969E0,1.231286716E1,5.530411243E0
7.140536980E-1,2.563311338E0,1.170449162E1,4.648656368E0
7.165571880E-1,3.195614576E0,1.105304623E1,4.586442947E0
7.190606250E-1,3.905086517E0,1.016650486E1,4.336990833E0
7.215640630E-1,4.599603176E0,9.107681274E0,4.202992916E0
7.240675000E-1,6.147161484E0,7.713861942E0,6.100501537E0
7.265709380E-1,8.130212784E0,6.037091732E0,8.869595528E0
7.290744270E-1,8.504091263E0,4.762315273E0,9.530612946E0
7.313804170E-1,8.422736168E0,3.219542980E0,8.903095245E0
7.338838540E-1,8.158926964E0,1.537986755E0,1.112602711E1
7.363872920E-1,6.616752625E0,7.860422134E-1,1.411585903E1
7.388907290E-1,6.970890522E0,2.391027927E0,1.301875019E1
7.413941670E-1,9.002396584E0,3.339184046E0,9.487542152E0
7.438976040E-1,9.821938515E0,3.818346739E0,4.739583492E0
7.464010940E-1,9.936794281E0,4.369294167E0,-1.967498422E0
7.489045310E-1,9.227322578E0,5.160121918E0,-9.221340179E0
7.514079690E-1,7.881359577E0,6.616752625E0,-1.428993702E1
7.539114060E-1,6.467799664E0,7.847859859E0,-1.696810341E1
7.564148440E-1,5.078765869E0,8.288737297E0,-1.668575096E1
7.589183340E-1,2.961117983E0,9.203393936E0,-1.429950809E1
7.612243230E-1,1.413560033E0,1.054516983E1,-1.151127148E1
7.637277610E-1,8.243274093E-1,1.180020523E1,-8.847461700E0
7.662311980E-1,5.700899959E-1,1.281595802E1,-5.997011662E0
7.687346360E-1,2.446661144E-1,1.369771290E1,-3.089133978E0
7.712380730E-1,-2.009970993E-1,1.426301765E1,-4.540380836E-1
7.737415110E-1,-2.536391914E-1,1.367378521E1,1.663609982E0
7.762450000E-1,-5.653043389E-1,1.315633678E1,3.287738323E0
7.787484380E-1,-1.264606714E0,1.307498074E1,4.433301926E0
7.812518750E-1,-2.783450842E0,1.361635685E1,5.884549141E0
7.837553130E-1,-4.925027370E0,1.553240967E1,8.443074226E0
7.862587500E-1,-6.270989895E0,1.676411629E1,1.152861977E1
7.887622400E-1,-6.151348591E0,1.680240059E1,1.177747345E1
7.910682810E-1,-4.149154663E0,1.609292793E1,9.137591362E0
7.935717190E-1,-1.719841242E0,1.595414543E1,6.215356827E0
7.960751560E-1,-4.552344978E-1,1.642373657E1,3.292523861E0
7.985785940E-1,-1.292124242E-1,1.683111382E1,1.131805062E0
8.010820310E-1,-3.828516230E-2,1.707518196E1,-2.620140910E-1
8.035854690E-1,-3.828516304E-1,1.709432411E1,-7.268198729E-1
8.060889590E-1,-9.726824164E-1,1.697946930E1,-6.215356588E-1
8.085923960E-1,-1.216750264E0,1.677847290E1,-3.672982752E-1
8.110958340E-1,-1.183250785E0,1.653380585E1,-2.141576260E-1
8.135992710E-1,-9.870393276E-1,1.603071594E1,-6.580262631E-2
8.161027090E-1,-8.572286963E-1,1.552283859E1,2.512463741E-2
8.186061980E-1,-6.897311211E-1,1.499581909E1,1.076770201E-2
8.209121880E-1,-5.413761139E-1,1.449751377E1,7.298108935E-2
8.234156250E-1,-4.265206456E-1,1.399442291E1,4.905286431E-2
8.259190630E-1,-3.158525825E-1,1.351047516E1,-4.187439755E-2
8.284225000E-1,-2.344966233E-1,1.305105305E1,-1.998006850E-1
8.309259380E-1,-2.536391914E-1,1.266281700E1,-3.918247223E-1
8.334293750E-1,-2.440679073E-1,1.224586773E1,-6.741777658E-1
8.359328650E-1,-1.770688742E-1,1.184327602E1,-9.086744189E-1
8.384363020E-1,-1.914258115E-2,1.145563793E1,-1.115055323E0
8.409397400E-1,-2.392822653E-1,1.118704414E1,-1.311266780E0
8.434431770E-1,-4.313062727E-1,1.095733356E1,-1.599003673E0
8.459466150E-1,-4.648058116E-1,1.073180962E1,-1.785643935E0
8.484501040E-1,-6.801598072E-1,1.063131142E1,-1.795215130E0
8.507560940E-1,-9.337990284E-1,1.055952644E1,-1.785643935E0
