"Time (s)","Acceleration x (m/s^2)","Acceleration y (m/s^2)","Acceleration z (m/s^2)"
0.000000000E0,-6.944413185E-1,-1.036829376E1,-5.778149128E0
2.500000000E-2,-1.661650836E-1,-1.004884338E1,-5.728120327E0
2.750000000E-2,3.961995542E-1,-9.560409546E0,-5.755411148E0
3.000000000E-2,6.900585890E-1,-9.433230400E0,-5.718465328E0
3.250000000E-2,9.267106652E-1,-9.219016075E0,-5.717255592E0
3.500000000E-2,1.130558848E0,-9.001468658E0,-5.634603500E0
3.750000000E-2,1.388467431E0,-8.829311371E0,-5.598157883E0
4.000000000E-2,1.707470179E0,-8.610829353E0,-5.583227634E0
4.250000000E-2,1.991100550E0,-8.477860451E0,-5.540156841E0
4.500000000E-2,2.291001320E0,-8.386377335E0,-5.474764347E0
4.750000000E-2,2.577410936E0,-8.372832298E0,-5.354054451E0
5.000000000E-2,2.826783180E0,-8.399539948E0,-5.179344654E0
5.250000000E-2,3.147325993E0,-8.482576370E0,-4.961017132E0
5.500000000E-2,3.351268291E0,-8.582760811E0,-4.724956512E0
5.750000000E-2,3.585772514E0,-8.758790016E0,-4.464934826E0
6.000000000E-2,3.867253780E0,-8.973806381E0,-4.197080612E0
6.250000000E-2,4.148291111E0,-9.287794113E0,-3.911352634E0
6.500000000E-2,4.415136814E0,-9.676085472E0,-3.544444084E0
6.750000000E-2,4.722464561E0,-1.011426449E1,-3.226603031E0
7.000000000E-2,5.021671772E0,-1.067774487E1,-2.846552849E0
7.250000000E-2,5.293686867E0,-1.123687744E1,-2.434761047E0
7.500000000E-2,5.564422607E0,-1.189428139E1,-2.104364395E0
7.750000000E-2,5.740175247E0,-1.259297180E1,-1.859978914E0
8.000000000E-2,5.888867855E0,-1.332732677E1,-1.715099454E0
8.250000000E-2,5.903087616E0,-1.403781796E1,-1.708691239E0
8.500000000E-2,5.769471169E0,-1.467404842E1,-1.778578401E0
8.750000000E-2,5.420222759E0,-1.525148106E1,-2.054020643E0
9.000000000E-2,5.278303623E0,-1.589822865E1,-2.478453398E0
9.250000000E-2,5.011255741E0,-1.646423531E1,-2.879370451E0
9.500000000E-2,4.590083599E0,-1.690362549E1,-3.235673904E0
9.750000000E-2,4.166480064E0,-1.724483299E1,-3.547429323E0
1.000000000E-1,3.748447657E0,-1.752124023E1,-3.729326010E0
1.025000000E-1,3.292913914E0,-1.769205666E1,-3.745189667E0
1.050000000E-1,2.887686253E0,-1.775263214E1,-3.612999439E0
1.075000000E-1,2.599757433E0,-1.772817039E1,-3.414852619E0
1.100000000E-1,2.472002268E0,-1.763899422E1,-3.269840240E0
1.125000000E-1,2.419567585E0,-1.740833664E1,-3.089856863E0
1.150000000E-1,2.168087244E0,-1.701822281E1,-3.013415813E0
1.175000000E-1,1.925505757E0,-1.637387848E1,-3.057621479E0
1.200000000E-1,1.719041467E0,-1.559632301E1,-3.116063118E0
1.225000000E-1,1.489723682E0,-1.469916725E1,-3.212828636E0
1.250000000E-1,1.278203487E0,-1.368015194E1,-3.249375343E0
1.275000000E-1,1.138625860E0,-1.261236000E1,-3.149603367E0
1.300000000E-1,9.388833046E-1,-1.157673454E1,-2.850818872E0
1.325000000E-1,7.842529416E-1,-1.058027458E1,-2.255956411E0
1.350000000E-1,9.429231286E-1,-9.500406265E0,-1.377146244E0
1.375000000E-1,1.192621231E0,-8.537676811E0,-2.702644765E-1
1.400000000E-1,1.440057874E0,-7.609128952E0,9.536171556E-1
1.425000000E-1,1.819621205E0,-6.764226437E0,2.145931482E0
1.450000000E-1,2.268311262E0,-6.107784748E0,3.077370882E0
1.475000000E-1,2.693167686E0,-5.504157543E0,3.887246847E0
1.500000000E-1,3.009215832E0,-5.003870964E0,4.599652290E0
1.525000000E-1,3.284395695E0,-4.617702484E0,5.350851536E0
1.550000000E-1,3.422957182E0,-4.241756439E0,6.072723389E0
1.575000000E-1,3.615711689E0,-3.954751730E0,6.789784908E0
1.600000000E-1,3.795193911E0,-3.744290590E0,7.466798306E0
1.625000000E-1,4.066215992E0,-3.597100258E0,7.992927551E0
1.650000000E-1,4.372094631E0,-3.549974918E0,8.354916573E0
1.675000000E-1,4.636928082E0,-3.606150150E0,8.590785980E0
1.700000000E-1,4.829589367E0,-3.735405207E0,8.652502060E0
1.725000000E-1,4.952064514E0,-3.881221294E0,8.585282326E0
1.750000000E-1,5.019457340E0,-4.088999748E0,8.482077599E0
1.775000000E-1,5.030529499E0,-4.310827732E0,8.343917847E0
1.800000000E-1,5.035356522E0,-4.602637291E0,8.160144806E0
1.825000000E-1,5.029674053E0,-4.895239353E0,7.906697273E0
1.850000000E-1,5.028616428E0,-5.291790009E0,7.697344303E0
1.875000000E-1,5.102980614E0,-5.765149593E0,7.465608120E0
1.900000000E-1,5.136091709E0,-6.252780437E0,7.237986565E0
1.925000000E-1,5.163693428E0,-6.658179283E0,6.965900898E0
1.950000000E-1,5.219117641E0,-7.161909103E0,6.745459080E0
1.975000000E-1,5.180758476E0,-7.669754982E0,6.564028740E0
2.000000000E-1,5.169922352E0,-8.188136101E0,6.375823021E0
2.025000000E-1,5.169059753E0,-8.634424210E0,6.143577099E0
2.050000000E-1,5.064224243E0,-9.057994843E0,5.742507458E0
2.075000000E-1,4.983953476E0,-9.453125954E0,5.321023464E0
2.100000000E-1,4.937210560E0,-9.787228584E0,4.731467247E0
2.125000000E-1,4.867531776E0,-1.012466526E1,4.109214783E0
2.150000000E-1,4.845605850E0,-1.039270592E1,3.419085741E0
2.175000000E-1,4.773643494E0,-1.072100830E1,2.650297403E0
2.200000000E-1,4.583903313E0,-1.105883408E1,1.878138185E0
2.225000000E-1,4.419086456E0,-1.139326572E1,1.153980613E0
2.250000000E-1,4.076659203E0,-1.168175507E1,3.868836164E-1
2.275000000E-1,3.721141100E0,-1.198857307E1,-3.440110683E-1
2.300000000E-1,3.347177029E0,-1.228497028E1,-1.028913379E0
2.325000000E-1,2.982777834E0,-1.255599499E1,-1.681052208E0
2.350000000E-1,2.652868271E0,-1.278389645E1,-2.211755514E0
2.375000000E-1,2.352823019E0,-1.294606590E1,-2.668604612E0
2.400000000E-1,1.977230906E0,-1.301762295E1,-3.021634102E0
2.425000000E-1,1.604493499E0,-1.304093361E1,-3.233134031E0
2.450000000E-1,1.262956262E0,-1.300987148E1,-3.268989801E0
2.475000000E-1,1.101749897E0,-1.289183521E1,-3.190134048E0
2.500000000E-1,9.888734221E-1,-1.274160671E1,-3.028211832E0
2.525000000E-1,8.422454596E-1,-1.263358974E1,-2.795206547E0
2.550000000E-1,6.968091726E-1,-1.247392559E1,-2.479454756E0
2.575000000E-1,6.486520171E-1,-1.226787281E1,-2.098408461E0
2.600000000E-1,5.909830928E-1,-1.209820747E1,-1.723792553E0
2.625000000E-1,5.738052726E-1,-1.196310043E1,-1.369678617E0
2.650000000E-1,6.040266752E-1,-1.174962711E1,-9.790151715E-1
2.675000000E-1,5.923636556E-1,-1.154674435E1,-6.428169012E-1
2.700000000E-1,6.000073552E-1,-1.129559135E1,-3.615177870E-1
2.725000000E-1,5.449925065E-1,-1.103482533E1,-9.242574871E-2
2.750000000E-1,6.331048012E-1,-1.075543213E1,2.890361845E-2
2.775000000E-1,7.920161486E-1,-1.051060104E1,6.672988087E-2
2.800000000E-1,1.050907016E0,-1.026919460E1,7.973669469E-2
2.825000000E-1,1.279616356E0,-1.004238987E1,1.131137609E-1
2.850000000E-1,1.482169867E0,-9.823068619E0,1.395840645E-1
2.875000000E-1,1.566789985E0,-9.620083809E0,2.141124010E-1
2.900000000E-1,1.588960052E0,-9.430848122E0,2.934412658E-1
2.925000000E-1,1.710309982E0,-9.263010979E0,3.633581400E-1
2.950000000E-1,1.852773786E0,-9.113268852E0,4.293988347E-1
2.975000000E-1,2.112910986E0,-8.964241028E0,4.847566485E-1
3.000000000E-1,2.325760603E0,-8.830067635E0,4.724675119E-1
3.025000000E-1,2.433398724E0,-8.723210335E0,4.740557075E-1
3.050000000E-1,2.564582586E0,-8.644335747E0,3.941360712E-1
3.075000000E-1,2.638584375E0,-8.545142174E0,3.451288342E-1
3.100000000E-1,2.688836575E0,-8.426905632E0,3.027146161E-1
3.125000000E-1,2.700328827E0,-8.337306023E0,2.522411644E-1
3.150000000E-1,2.723421097E0,-8.261346817E0,1.829223484E-1
3.175000000E-1,2.744099379E0,-8.158799171E0,1.583327502E-1
3.200000000E-1,2.721689939E0,-8.045663834E0,1.339499801E-1
3.225000000E-1,2.578897476E0,-7.995878220E0,1.659270823E-1
3.250000000E-1,2.446934223E0,-7.946303844E0,1.978501230E-1
3.275000000E-1,2.329612970E0,-7.898587227E0,2.585171461E-1
3.300000000E-1,2.202151060E0,-7.870351791E0,3.306384087E-1
3.325000000E-1,1.989149451E0,-7.860878944E0,4.046050906E-1
3.350000000E-1,1.838717222E0,-7.858614922E0,4.839907885E-1
3.375000000E-1,1.624604344E0,-7.871937752E0,5.463759899E-1
3.400000000E-1,1.416584134E0,-7.901576996E0,5.837661624E-1
3.425000000E-1,1.274434924E0,-7.992778301E0,5.989544392E-1
3.450000000E-1,1.106874228E0,-8.081692696E0,6.369312406E-1
3.475000000E-1,9.608892202E-1,-8.177190781E0,6.600732803E-1
3.500000000E-1,7.929717898E-1,-8.279452324E0,6.768195629E-1
3.525000000E-1,6.615682840E-1,-8.461831093E0,7.107051611E-1
3.550000000E-1,5.070783496E-1,-8.578992844E0,7.525480390E-1
3.575000000E-1,3.385680914E-1,-8.745213509E0,7.723483443E-1
3.600000000E-1,2.793242037E-1,-8.918485641E0,7.114694715E-1
3.625000000E-1,1.705349237E-1,-9.057104111E0,7.180335522E-1
3.650000000E-1,8.046043664E-2,-9.232110977E0,6.734914184E-1
3.675000000E-1,-4.818353057E-2,-9.414284706E0,6.767876744E-1
3.700000000E-1,-2.202358097E-1,-9.597332954E0,6.588465571E-1
3.725000000E-1,-3.990902603E-1,-9.776187897E0,6.342473626E-1
3.750000000E-1,-5.114919543E-1,-9.965656281E0,6.231946945E-1
3.775000000E-1,-6.537359953E-1,-1.014388084E1,6.089443564E-1
3.800000000E-1,-7.902233601E-1,-1.032644176E1,5.795950890E-1
3.825000000E-1,-9.251323342E-1,-1.050808907E1,5.735991597E-1
3.850000000E-1,-1.032421708E0,-1.066238499E1,5.299137831E-1
3.875000000E-1,-1.108989120E0,-1.081778908E1,5.003894567E-1
3.900000000E-1,-1.209637403E0,-1.095974636E1,4.484639168E-1
3.925000000E-1,-1.297404051E0,-1.110217762E1,4.001226425E-1
3.950000000E-1,-1.345562339E0,-1.117899227E1,2.956624031E-1
3.975000000E-1,-1.345306873E0,-1.122680569E1,1.983757317E-1
4.000000000E-1,-1.311192155E0,-1.123907185E1,7.501138002E-2
4.025000000E-1,-1.322318196E0,-1.120132256E1,-1.949163154E-2
4.050000000E-1,-1.294313312E0,-1.112393856E1,-1.125232428E-1
4.075000000E-1,-1.228233933E0,-1.103405094E1,-2.372375280E-1
4.100000000E-1,-1.062252641E0,-1.091454315E1,-4.072253406E-1
4.125000000E-1,-9.013859630E-1,-1.081618023E1,-6.102755666E-1
4.150000000E-1,-6.789497137E-1,-1.068280697E1,-8.076081276E-1
4.175000000E-1,-4.063905180E-1,-1.054730320E1,-9.815723300E-1
4.200000000E-1,-1.804122776E-1,-1.042504025E1,-1.194466949E0
4.225000000E-1,4.371433333E-2,-1.032809830E1,-1.381352186E0
4.250000000E-1,3.192688823E-1,-1.020710850E1,-1.559755087E0
4.275000000E-1,6.142624021E-1,-1.012831116E1,-1.735018849E0
4.300000000E-1,8.659628034E-1,-1.004720783E1,-1.886724949E0
4.325000000E-1,1.078785062E0,-9.981876373E0,-1.965785861E0
4.350000000E-1,1.268306851E0,-9.850315094E0,-2.030770540E0
4.375000000E-1,1.440016866E0,-9.821159363E0,-2.038150311E0
4.400000000E-1,1.626766324E0,-9.745013237E0,-2.031961203E0
4.425000000E-1,1.755504251E0,-9.713942528E0,-1.958528399E0
4.450000000E-1,1.855136991E0,-9.637660980E0,-1.903990746E0
4.475000000E-1,1.974661469E0,-9.576222420E0,-1.777148724E0
4.500000000E-1,2.116547823E0,-9.571471214E0,-1.674376369E0
4.525000000E-1,2.266560316E0,-9.545159340E0,-1.544516325E0
4.550000000E-1,2.386772156E0,-9.538941383E0,-1.427435875E0
4.575000000E-1,2.499224663E0,-9.522144318E0,-1.279958606E0
4.600000000E-1,2.618866444E0,-9.524324417E0,-1.092516184E0
4.625000000E-1,2.779040098E0,-9.518163681E0,-8.797547221E-1
4.650000000E-1,2.911468029E0,-9.494774818E0,-7.271982431E-1
4.675000000E-1,3.028241873E0,-9.502528191E0,-5.579409003E-1
4.700000000E-1,3.167113066E0,-9.485997200E0,-3.892777860E-1
4.725000000E-1,3.223997116E0,-9.479866982E0,-2.584393919E-1
4.750000000E-1,3.316101789E0,-9.465003967E0,-1.323463917E-1
4.775000000E-1,3.429703236E0,-9.459188461E0,-1.327118836E-3
4.800000000E-1,3.492229700E0,-9.457545280E0,1.302270442E-1
4.825000000E-1,3.516143322E0,-9.403758049E0,2.601898015E-1
4.850000000E-1,3.544883728E0,-9.376479149E0,3.669196665E-1
4.875000000E-1,3.529372692E0,-9.350773811E0,4.754267633E-1
4.900000000E-1,3.508002281E0,-9.287348747E0,5.669658780E-1
4.925000000E-1,3.461423635E0,-9.217559814E0,6.574266553E-1
4.950000000E-1,3.408042192E0,-9.153722763E0,7.365220785E-1
4.975000000E-1,3.351720333E0,-9.129960060E0,8.030810952E-1
5.000000000E-1,3.281372070E0,-9.095032692E0,8.376901150E-1
5.025000000E-1,3.225266457E0,-9.040771484E0,8.417268395E-1
5.050000000E-1,3.140449762E0,-9.024675369E0,8.315803409E-1
5.075000000E-1,3.084287643E0,-8.996998787E0,8.234466910E-1
5.100000000E-1,3.016219139E0,-8.999758720E0,7.671644092E-1
5.125000000E-1,2.909095049E0,-8.985716820E0,7.076271176E-1
5.150000000E-1,2.758679867E0,-8.957964897E0,6.240777373E-1
5.175000000E-1,2.706095219E0,-8.975914955E0,6.054427028E-1
5.200000000E-1,2.592550755E0,-8.995685577E0,5.656346679E-1
5.225000000E-1,2.437237024E0,-9.010121346E0,5.856489539E-1
5.250000000E-1,2.273366213E0,-9.000935555E0,6.061595678E-1
5.275000000E-1,2.057952404E0,-9.088401794E0,6.556008458E-1
5.300000000E-1,1.902863026E0,-9.105899811E0,7.331575155E-1
5.325000000E-1,1.731558919E0,-9.140570641E0,8.199371696E-1
5.350000000E-1,1.510969400E0,-9.142225266E0,9.418777823E-1
5.375000000E-1,1.360348344E0,-9.231099129E0,1.021615148E0
5.400000000E-1,1.179420829E0,-9.294717789E0,1.140870929E0
5.425000000E-1,9.970005155E-1,-9.351686478E0,1.254569292E0
5.450000000E-1,8.300203681E-1,-9.460412979E0,1.363584995E0
5.475000000E-1,6.773656011E-1,-9.516243935E0,1.518975258E0
5.500000000E-1,5.363902450E-1,-9.590367317E0,1.622438908E0
5.525000000E-1,4.054320157E-1,-9.688478470E0,1.726212740E0
5.550000000E-1,3.462578058E-1,-9.788424492E0,1.828229070E0
5.575000000E-1,2.426307052E-1,-9.867760658E0,1.911594510E0
5.600000000E-1,1.685090959E-1,-9.949872971E0,2.012924194E0
5.625000000E-1,1.386269778E-1,-1.002370358E1,2.076947927E0
5.650000000E-1,1.756994277E-1,-1.013199711E1,2.132784128E0
5.675000000E-1,2.078271955E-1,-1.014474392E1,2.187044621E0
5.700000000E-1,2.265853137E-1,-1.018387985E1,2.214398861E0
5.725000000E-1,3.145073354E-1,-1.023614216E1,2.219068766E0
5.750000000E-1,4.429284930E-1,-1.025978088E1,2.211873770E0
5.775000000E-1,6.352143288E-1,-1.031205559E1,2.170471907E0
5.800000000E-1,8.566135168E-1,-1.035628033E1,2.121633530E0
5.825000000E-1,1.091247082E0,-1.038316345E1,2.021024704E0
5.850000000E-1,1.369858861E0,-1.036966515E1,1.946370482E0
5.875000000E-1,1.661586404E0,-1.044494438E1,1.845193148E0
5.900000000E-1,1.960274696E0,-1.046665859E1,1.738552094E0
5.925000000E-1,2.253149986E0,-1.048547649E1,1.622740626E0
5.950000000E-1,2.543858051E0,-1.046087742E1,1.489488244E0
5.975000000E-1,2.813566923E0,-1.044834328E1,1.314212918E0
6.000000000E-1,3.057675123E0,-1.040924644E1,1.149705768E0
6.025000000E-1,3.295519114E0,-1.035289288E1,9.744266868E-1
6.050000000E-1,3.501671076E0,-1.031529045E1,7.971981764E-1
6.075000000E-1,3.718954086E0,-1.024696636E1,6.902846694E-1
6.100000000E-1,3.919118881E0,-1.022185421E1,5.667573810E-1
6.125000000E-1,4.084935665E0,-1.011112118E1,4.994097054E-1
6.150000000E-1,4.246627331E0,-1.001463318E1,4.669175148E-1
6.175000000E-1,4.285070896E0,-1.000588608E1,4.033126831E-1
6.200000000E-1,4.383729458E0,-9.960043907E0,3.414657712E-1
6.225000000E-1,4.430502892E0,-9.915737152E0,2.809105814E-1
6.250000000E-1,4.446116924E0,-9.860199928E0,1.960364878E-1
6.275000000E-1,4.413630009E0,-9.809480667E0,1.617073864E-1
6.300000000E-1,4.391353130E0,-9.803502083E0,1.125032008E-1
6.325000000E-1,4.344284534E0,-9.789659500E0,9.095396101E-2
6.350000000E-1,4.238641739E0,-9.777401924E0,5.374068394E-2
6.375000000E-1,4.108612537E0,-9.787351608E0,8.076971024E-2
6.400000000E-1,3.940698862E0,-9.838999748E0,1.135289893E-1
6.425000000E-1,3.728255033E0,-9.875487328E0,1.570300758E-1
6.450000000E-1,3.541698456E0,-9.862547874E0,1.490787417E-1
6.475000000E-1,3.351081610E0,-9.901945114E0,1.571808308E-1
6.500000000E-1,3.117878675E0,-9.915396690E0,1.470995992E-1
6.525000000E-1,2.894676208E0,-9.988030434E0,1.533411592E-1
6.550000000E-1,2.673395872E0,-1.004856777E1,1.839836985E-1
6.575000000E-1,2.448412418E0,-1.008850002E1,2.529792488E-1
6.600000000E-1,2.292140961E0,-1.015747547E1,3.563732803E-1
6.625000000E-1,2.084197283E0,-1.025628281E1,3.935943544E-1
6.650000000E-1,1.858654022E0,-1.034255028E1,4.169169366E-1
6.675000000E-1,1.635336161E0,-1.051754379E1,5.015439987E-1
6.700000000E-1,1.461343169E0,-1.062130737E1,5.553390980E-1
6.725000000E-1,1.298458815E0,-1.076194763E1,6.595012546E-1
6.750000000E-1,1.138199806E0,-1.088865757E1,8.170186877E-1
6.775000000E-1,9.987655282E-1,-1.100821590E1,9.043877721E-1
6.800000000E-1,8.525646925E-1,-1.110936356E1,1.082607031E0
6.825000000E-1,7.899074554E-1,-1.135233784E1,1.069735408E0
6.850000000E-1,6.607972980E-1,-1.158305359E1,1.118483782E0
6.875000000E-1,6.011849046E-1,-1.177114105E1,1.189212084E0
6.900000000E-1,5.341238976E-1,-1.194201088E1,1.222115874E0
6.925000000E-1,5.364821553E-1,-1.207802773E1,1.311917663E0
6.950000000E-1,5.644958019E-1,-1.217058754E1,1.378185034E0
6.975000000E-1,5.862919092E-1,-1.230113029E1,1.452257991E0
7.000000000E-1,6.383375525E-1,-1.230617428E1,1.516732574E0
7.025000000E-1,6.996928453E-1,-1.231980801E1,1.584067941E0
7.050000000E-1,7.696427703E-1,-1.231456566E1,1.641724348E0
7.075000000E-1,8.033398986E-1,-1.226881027E1,1.663119197E0
7.100000000E-1,8.975642323E-1,-1.217377377E1,1.678988814E0
7.125000000E-1,9.496008754E-1,-1.204746437E1,1.706654191E0
7.150000000E-1,1.067053080E0,-1.186644363E1,1.728671432E0
7.175000000E-1,1.216563225E0,-1.182240009E1,1.528425097E0
7.200000000E-1,1.239438295E0,-1.177722931E1,1.317494392E0
7.225000000E-1,1.308704138E0,-1.164723110E1,1.174625158E0
7.250000000E-1,1.439196587E0,-1.150775337E1,1.026202679E0
7.275000000E-1,1.634185553E0,-1.138936043E1,8.359131813E-1
7.300000000E-1,1.868049502E0,-1.126272774E1,6.830131412E-1
7.325000000E-1,2.101364136E0,-1.106138229E1,5.400558710E-1
7.350000000E-1,2.368854046E0,-1.084141922E1,4.103319645E-1
7.375000000E-1,2.677344799E0,-1.064355373E1,2.497527599E-1
7.400000000E-1,2.914035320E0,-1.041628265E1,1.098024473E-1
7.425000000E-1,3.124863386E0,-1.018255997E1,-7.790741324E-2
7.450000000E-1,3.289289951E0,-9.969464302E0,-3.072090745E-1
7.475000000E-1,3.403409481E0,-9.781564713E0,-4.782710969E-1
7.500000000E-1,3.433425426E0,-9.635107040E0,-6.555155516E-1
7.525000000E-1,3.438114166E0,-9.524640083E0,-7.886933684E-1
7.550000000E-1,3.402076960E0,-9.468513489E0,-9.067305923E-1
7.575000000E-1,3.333184242E0,-9.451620102E0,-9.714210629E-1
7.600000000E-1,3.335667849E0,-9.473060608E0,-9.536917210E-1
7.625000000E-1,3.267748117E0,-9.507019997E0,-9.230791926E-1
7.650000000E-1,3.227554083E0,-9.553867340E0,-8.647675514E-1
7.675000000E-1,3.126125336E0,-9.627152443E0,-8.263463378E-1
7.700000000E-1,3.075495481E0,-9.653862000E0,-7.853916883E-1
7.725000000E-1,3.023365736E0,-9.688572884E0,-7.660217285E-1
7.750000000E-1,2.945837975E0,-9.726814270E0,-7.463969588E-1
7.775000000E-1,2.933703661E0,-9.740095139E0,-7.443014979E-1
7.800000000E-1,2.856639385E0,-9.778750420E0,-7.406226397E-1
7.825000000E-1,2.833989143E0,-9.795032501E0,-7.410617471E-1
7.850000000E-1,2.812373400E0,-9.803770065E0,-7.519082427E-1
7.875000000E-1,2.854367256E0,-9.805149078E0,-7.476411462E-1
7.900000000E-1,2.845355511E0,-9.797891617E0,-7.872382402E-1
7.925000000E-1,2.896146774E0,-9.777752876E0,-8.221681118E-1
7.950000000E-1,2.894687414E0,-9.732848167E0,-8.693822622E-1
7.975000000E-1,2.908102512E0,-9.691959381E0,-9.167255759E-1
8.000000000E-1,2.925811291E0,-9.640228271E0,-9.342107773E-1
8.025000000E-1,2.959432840E0,-9.590667725E0,-1.005937696E0
8.050000000E-1,2.965638638E0,-9.510442734E0,-1.054212570E0
8.075000000E-1,2.941330910E0,-9.462103844E0,-1.054107189E0
8.100000000E-1,2.921342134E0,-9.390844345E0,-1.101893425E0
8.125000000E-1,2.861678600E0,-9.319946289E0,-1.120797396E0
8.150000000E-1,2.792016029E0,-9.252256393E0,-1.135371327E0
8.175000000E-1,2.761723995E0,-9.179805756E0,-1.127381086E0
8.200000000E-1,2.723908424E0,-9.080568314E0,-1.085539222E0
8.225000000E-1,2.665998936E0,-9.000614166E0,-1.047307014E0
8.250000000E-1,2.616965294E0,-8.952792168E0,-1.046782136E0
8.275000000E-1,2.572728395E0,-8.902577400E0,-1.017488122E0
8.300000000E-1,2.515360832E0,-8.816845894E0,-9.308228493E-1
8.325000000E-1,2.482821226E0,-8.797438622E0,-8.489816189E-1
8.350000000E-1,2.506021261E0,-8.750597954E0,-7.794362307E-1
8.375000000E-1,2.548399210E0,-8.718329430E0,-6.805306673E-1
8.400000000E-1,2.591680050E0,-8.703147888E0,-6.102190614E-1
8.425000000E-1,2.665538073E0,-8.694321632E0,-5.626122355E-1
8.450000000E-1,2.758110046E0,-8.692240715E0,-5.369335413E-1
8.475000000E-1,2.863555908E0,-8.668221474E0,-5.453714728E-1
8.500000000E-1,2.948952436E0,-8.712017059E0,-5.164799690E-1
8.525000000E-1,3.040025473E0,-8.727197647E0,-5.003822446E-1
8.550000000E-1,3.159349442E0,-8.741392136E0,-4.894235432E-1
8.575000000E-1,3.244232178E0,-8.751398087E0,-4.530389011E-1
8.600000000E-1,3.338963032E0,-8.820889473E0,-4.211125970E-1
