"Time (s)","Acceleration x (m/s^2)","Acceleration y (m/s^2)","Acceleration z (m/s^2)"
2.730953100E-2,3.161048651E0,-1.068316269E1,3.256432295E0
2.970343700E-2,3.247236252E0,-1.075259209E1,3.742434263E0
3.209739600E-2,3.323847294E0,-1.085314369E1,3.972267628E0
3.449140600E-2,3.331029654E0,-1.102791309E1,3.905232906E0
3.688536400E-2,3.287935734E0,-1.122901726E1,3.524571419E0
3.927932300E-2,3.189777851E0,-1.151870346E1,2.885347128E0
4.167333300E-2,3.055708408E0,-1.189218235E1,2.205423117E0
4.406734400E-2,2.981491327E0,-1.223214436E1,1.499163747E0
4.646130200E-2,2.950368166E0,-1.253380108E1,8.431807160E-1
4.885526000E-2,2.837845325E0,-1.282348633E1,2.733851969E-1
5.124921900E-2,2.727716923E0,-1.307726192E1,-2.269814312E-1
5.364317700E-2,2.615194082E0,-1.323527145E1,-6.148254275E-1
5.603713500E-2,2.517036200E0,-1.327597141E1,-1.019428134E0
5.843109400E-2,2.390148878E0,-1.328794193E1,-1.436001301E0
6.082505200E-2,2.232138395E0,-1.320414829E1,-1.814268947E0
6.321901000E-2,2.021457672E0,-1.306768417E1,-2.168595314E0
6.561296900E-2,1.858658791E0,-1.294319153E1,-2.501375198E0
6.800692700E-2,1.698254228E0,-1.275884628E1,-2.762331963E0
7.040088500E-2,1.513908625E0,-1.263674736E1,-2.984983206E0
7.279484400E-2,1.329563022E0,-1.254577160E1,-3.090323448E0
7.518880200E-2,1.090153217E0,-1.253619480E1,-3.142993689E0
7.758276000E-2,8.818665743E-1,-1.256492424E1,-3.080747128E0
7.997671900E-2,6.879445910E-1,-1.257210636E1,-2.850913763E0
8.237067700E-2,4.844461679E-1,-1.251225376E1,-2.542074919E0
8.476463500E-2,2.426422089E-1,-1.245958328E1,-2.156625032E0
8.715859400E-2,-4.464963078E-2,-1.234945583E1,-1.735263705E0
8.955255200E-2,-3.175768554E-1,-1.223932648E1,-1.318690538E0
9.194651000E-2,-5.833219290E-1,-1.213159275E1,-9.332405329E-1
9.434046900E-2,-9.137074947E-1,-1.200470543E1,-5.453965664E-1
9.673442700E-2,-1.232122660E0,-1.188260651E1,-1.407938749E-1
9.912838500E-2,-1.584055066E0,-1.174135494E1,2.662028968E-1
1.015223440E-1,-1.868953109E0,-1.159531498E1,6.875643134E-1
1.039163020E-1,-2.101180315E0,-1.149236774E1,1.147231221E0
1.063102600E-1,-2.342984438E0,-1.141096878E1,1.587745309E0
1.087042190E-1,-2.692522764E0,-1.138223934E1,1.918130994E0
1.110981770E-1,-2.972632408E0,-1.136069298E1,2.234152079E0
1.134921350E-1,-3.276682854E0,-1.136308670E1,2.533414602E0
1.158860940E-1,-3.465816736E0,-1.137984562E1,2.791977167E0
1.182800520E-1,-3.638191700E0,-1.137266254E1,2.911682129E0
1.206740100E-1,-3.755502224E0,-1.133675194E1,3.060116291E0
1.230679690E-1,-3.731561661E0,-1.132238674E1,3.081663132E0
1.254619270E-1,-3.674103260E0,-1.134393406E1,3.057722092E0
1.278558850E-1,-3.475393057E0,-1.129126358E1,2.930834770E0
1.302416140E-1,-3.183312893E0,-1.123141193E1,2.756065607E0
1.326034370E-1,-2.783498526E0,-1.125535297E1,2.519049883E0
1.349500520E-1,-2.333407879E0,-1.129126358E1,2.296398878E0
1.372973960E-1,-1.880923629E0,-1.134153938E1,2.090506315E0
1.396446870E-1,-1.402103662E0,-1.142533398E1,1.796031952E0
1.419912500E-1,-7.700614929E-1,-1.156419086E1,1.599715829E0
1.443378640E-1,-1.954778731E-1,-1.177008343E1,1.401005745E0
1.466852080E-1,3.264356554E-1,-1.198076439E1,1.228630543E0
1.490325520E-1,7.286442518E-1,-1.218186855E1,1.037102699E0
1.513790620E-1,1.097335458E0,-1.237100220E1,8.527571559E-1
1.537256770E-1,1.396597862E0,-1.245718956E1,6.803820133E-1
1.560730210E-1,1.645584106E0,-1.251225376E1,5.343419909E-1
1.584203640E-1,1.772471189E0,-1.249549580E1,4.170311391E-1
1.607669270E-1,1.801200509E0,-1.252183056E1,3.643609583E-1
1.631134890E-1,1.805988669E0,-1.249070740E1,2.159268260E-1
1.654608330E-1,1.748530388E0,-1.239494324E1,3.636943549E-2
1.678081770E-1,1.583337426E0,-1.230157375E1,-4.981812835E-2
1.701547390E-1,1.394203663E0,-1.233748436E1,-9.291190654E-2
1.725013020E-1,1.214646339E0,-1.239254951E1,-1.216410846E-1
1.748486460E-1,9.943891764E-1,-1.230875587E1,-2.557106018E-1
1.771959890E-1,7.741321325E-1,-1.228002644E1,-4.280857146E-1
1.795425520E-1,5.059930682E-1,-1.232072639E1,-5.118792057E-1
1.818891660E-1,2.857359648E-1,-1.242127895E1,-4.448444247E-1
1.842365100E-1,9.899628162E-2,-1.255774117E1,-3.706273437E-1
1.865838540E-1,-8.774343133E-2,-1.268941784E1,-3.131689727E-1
1.889304160E-1,-2.313893139E-1,-1.282109261E1,-2.748634219E-1
1.912769790E-1,-4.037644565E-1,-1.296234417E1,-3.395040929E-1
1.936243230E-1,-5.474103689E-1,-1.311556625E1,-4.280857146E-1
1.959716660E-1,-6.934504509E-1,-1.320414829E1,-6.387664080E-1
1.983182290E-1,-7.748497725E-1,-1.328554726E1,-8.925408721E-1
2.006647910E-1,-7.580912113E-1,-1.328075981E1,-1.196591377E0
2.030121350E-1,-6.695094109E-1,-1.324963665E1,-1.495853782E0
2.053594790E-1,-4.564346373E-1,-1.324724293E1,-1.852574587E0
2.077060410E-1,-1.691427529E-1,-1.318499565E1,-2.283512115E0
2.100526560E-1,1.492723823E-1,-1.308204937E1,-2.810213804E0
2.124000000E-1,5.299340487E-1,-1.294558525E1,-3.253122091E0
2.147473440E-1,9.249603748E-1,-1.274208736E1,-3.530837774E0
2.170938540E-1,1.322380781E0,-1.254816532E1,-3.564354897E0
2.194404690E-1,1.657554626E0,-1.232312107E1,-3.408738613E0
2.217878120E-1,1.916117191E0,-1.209807491E1,-3.119052649E0
2.241351560E-1,2.095674753E0,-1.187302971E1,-2.819790125E0
2.264817190E-1,2.201014996E0,-1.174614239E1,-2.487010717E0
2.288282810E-1,2.287202597E0,-1.165995502E1,-2.384064436E0
2.311756250E-1,2.265655756E0,-1.158573723E1,-2.348152876E0
2.335229690E-1,2.236926556E0,-1.157376766E1,-2.427158117E0
2.358695310E-1,2.186650515E0,-1.160728455E1,-2.527710199E0
2.382160940E-1,1.997516632E0,-1.168868446E1,-2.625868320E0
2.405634370E-1,1.731771588E0,-1.184908867E1,-2.726420403E0
2.429107810E-1,1.509120464E0,-1.209568024E1,-2.755149603E0
2.452573440E-1,1.236193180E0,-1.238297272E1,-2.656991720E0
2.476039580E-1,9.656599760E-1,-1.276842308E1,-2.601927519E0
2.499513020E-1,6.711858511E-1,-1.315387249E1,-2.573198080E0
2.522986460E-1,3.862881362E-1,-1.353453445E1,-2.513345718E0
2.546451560E-1,1.013903618E-1,-1.396547127E1,-2.376881838E0
2.569917710E-1,-2.026601136E-1,-1.437246895E1,-2.364911318E0
2.593391140E-1,-5.114989281E-1,-1.478425407E1,-2.329000235E0
2.616864580E-1,-8.323081732E-1,-1.521040344E1,-2.300271034E0
2.640330210E-1,-1.110023618E0,-1.553360653E1,-2.276329994E0
2.663795830E-1,-1.378162622E0,-1.579695797E1,-2.305059195E0
2.687269270E-1,-1.672636867E0,-1.596693897E1,-2.312241316E0
2.710742710E-1,-1.938381791E0,-1.609143257E1,-2.317029715E0
2.734208330E-1,-2.165821075E0,-1.615846634E1,-2.388852358E0
2.757674480E-1,-2.450718880E0,-1.617283058E1,-2.472645998E0
2.781147910E-1,-2.766739845E0,-1.615367889E1,-2.496587038E0
2.804620830E-1,-3.082760811E0,-1.626859474E1,-2.463069677E0
2.828086460E-1,-3.451452255E0,-1.647209358E1,-2.374487877E0
2.851552600E-1,-3.839295864E0,-1.667319679E1,-2.245206594E0
2.875026040E-1,-4.255869389E0,-1.698682594E1,-2.123107433E0
2.898498960E-1,-4.614984035E0,-1.725735855E1,-1.948338389E0
2.921964580E-1,-4.957340240E0,-1.751352501E1,-1.763992906E0
2.945430730E-1,-5.330819607E0,-1.777448273E1,-1.591617823E0
2.968904160E-1,-5.646840572E0,-1.791812897E1,-1.364178419E0
2.992377600E-1,-5.938920975E0,-1.798755836E1,-1.043369174E0
3.015843230E-1,-6.132843018E0,-1.804022789E1,-6.459486485E-1
3.039308850E-1,-6.298035622E0,-1.804262161E1,-1.838876605E-1
3.062782290E-1,-6.372252464E0,-1.773617744E1,4.266075194E-1
3.086255730E-1,-6.444075584E0,-1.733636284E1,1.111319661E0
3.109721350E-1,-6.604479790E0,-1.699400711E1,1.506345987E0
3.133187500E-1,-6.819949150E0,-1.678332710E1,1.537469387E0
3.156660940E-1,-6.906136513E0,-1.667319679E1,1.293271184E0
3.180133850E-1,-6.875013351E0,-1.669474411E1,1.051467180E0
3.203599480E-1,-6.851072311E0,-1.677614403E1,7.474167943E-1
3.227065620E-1,-6.867830753E0,-1.679769135E1,4.266075194E-1
3.250539060E-1,-6.807978630E0,-1.655109787E1,1.225569770E-1
3.274011980E-1,-6.776855469E0,-1.628535271E1,-4.330255091E-3
3.297477600E-1,-6.563780308E0,-1.579935169E1,3.876353055E-2
3.320943750E-1,-6.274094582E0,-1.525110245E1,1.608625650E-1
3.344417190E-1,-6.051443577E0,-1.473158360E1,2.494442165E-1
3.367890620E-1,-5.917374134E0,-1.424797535E1,2.614147067E-1
3.391356250E-1,-5.618111610E0,-1.362550926E1,3.523904681E-1
3.414821870E-1,-5.108168602E0,-1.294558525E1,5.798298717E-1
3.438295310E-1,-4.325297832E0,-1.213877487E1,9.054272771E-1
3.461768750E-1,-3.389205456E0,-1.131520462E1,1.207083702E0
3.485234370E-1,-2.570423603E0,-1.058021641E1,1.350729585E0
3.508700520E-1,-1.912046790E0,-9.847622871E0,1.099349260E0
3.532173960E-1,-1.186634779E0,-8.995322227E0,5.918003321E-1
3.555646870E-1,-3.463060558E-1,-8.253152847E0,8.455748558E-1
3.579112500E-1,4.054409266E-1,-7.913191319E0,1.508740067E0
3.602578640E-1,7.382206917E-1,-8.040078163E0,2.042624235E0
3.626052080E-1,8.651078939E-1,-8.317792892E0,2.375404119E0
3.649525000E-1,9.848128557E-1,-8.502139091E0,2.645936966E0
3.672990620E-1,1.173946619E0,-8.686484337E0,2.875770569E0
3.696456770E-1,1.178734779E0,-8.775065422E0,3.045751572E0
3.719930210E-1,1.262528300E0,-8.837312698E0,3.189397573E0
3.743403640E-1,1.473208904E0,-8.954623222E0,3.234885216E0
3.766869270E-1,1.908934951E0,-9.081510544E0,3.306708336E0
3.790334890E-1,2.385360718E0,-9.275432587E0,3.292343855E0
3.813808330E-1,2.880939007E0,-9.399925232E0,3.270796776E0
3.837281770E-1,3.242448092E0,-9.469354630E0,3.045751572E0
3.860747390E-1,3.426793575E0,-9.514842987E0,2.653119326E0
3.884213540E-1,3.429187775E0,-9.522025108E0,2.073747635E0
3.907686980E-1,3.271177292E0,-9.550753593E0,1.458464146E0
3.931159890E-1,3.307088614E0,-9.533995628E0,9.006390572E-1
3.954625520E-1,3.486646175E0,-9.495689392E0,3.595727384E-1
3.978091660E-1,3.905613422E0,-9.390349388E0,-1.575525701E-1
4.001565100E-1,4.224028587E0,-9.251491547E0,-6.866483688E-1
4.025038540E-1,4.415556431E0,-9.062357903E0,-1.124768496E0
4.048504160E-1,4.537655354E0,-8.870829582E0,-1.481489182E0
4.071969790E-1,4.611872673E0,-8.698454857E0,-1.821451306E0
4.095443230E-1,4.535261154E0,-8.530867577E0,-2.156625032E0
4.118916660E-1,4.235999107E0,-8.368068695E0,-2.487010717E0
4.142382290E-1,3.838578701E0,-8.257940292E0,-2.872460365E0
4.165847910E-1,3.359758854E0,-8.169359207E0,-3.272274971E0
4.189321350E-1,2.969520807E0,-7.996984482E0,-3.542808056E0
4.212794790E-1,2.701381683E0,-7.728845119E0,-3.767853498E0
4.236260410E-1,2.524218559E0,-7.405642033E0,-3.918681622E0
4.259726560E-1,2.359025478E0,-7.044133186E0,-3.992898703E0
4.283200000E-1,2.208197355E0,-6.656289101E0,-3.949805021E0
4.306672910E-1,2.074127674E0,-6.318721294E0,-3.832494259E0
4.330138540E-1,1.918511391E0,-6.007488251E0,-3.643360138E0
4.353604690E-1,1.849082470E0,-5.681890965E0,-3.447044134E0
4.377078120E-1,1.700648308E0,-5.313199520E0,-3.243545771E0
4.400551560E-1,1.466026664E0,-5.028302193E0,-3.059200287E0
4.424016660E-1,1.173946619E0,-4.791285992E0,-2.961042166E0
4.447482810E-1,8.627138138E-1,-4.484841824E0,-2.855701685E0
4.470956250E-1,5.706337690E-1,-4.214308262E0,-2.846125364E0
4.494429690E-1,3.001005650E-1,-3.950957537E0,-2.949071646E0
4.517895310E-1,8.020520210E-3,-3.690000534E0,-3.061594248E0
4.541360940E-1,-2.816654146E-1,-3.441014290E0,-3.188481331E0
4.564834370E-1,-5.402280092E-1,-3.184845924E0,-3.312974691E0
4.588307810E-1,-7.413324118E-1,-2.899948120E0,-3.389585972E0
4.611773440E-1,-9.184956551E-1,-2.679691076E0,-3.480561733E0
4.635239580E-1,-1.076506257E0,-2.476192713E0,-3.530837774E0
4.658713020E-1,-1.184240699E0,-2.251147270E0,-3.549990416E0
4.682185940E-1,-1.241698980E0,-2.050043106E0,-3.480561733E0
4.705651560E-1,-1.268034101E0,-1.810633063E0,-3.315368652E0
4.729117710E-1,-1.234516740E0,-1.616711140E0,-3.210028410E0
4.752591140E-1,-1.368586302E0,-1.554464459E0,-3.449438095E0
4.776064060E-1,-1.646301866E0,-1.556858659E0,-3.980928183E0
4.799529690E-1,-1.892893672E0,-1.614316940E0,-4.536358833E0
4.822995830E-1,-2.170609236E0,-1.662199020E0,-4.924202919E0
4.846469270E-1,-2.350166559E0,-1.616711140E0,-5.106154442E0
4.869942710E-1,-2.455506802E0,-1.494612098E0,-5.132489681E0
4.893408330E-1,-2.462689161E0,-1.408424497E0,-4.945749760E0
4.916873960E-1,-2.448324680E0,-1.353360295E0,-4.735069275E0
4.940347390E-1,-2.433960199E0,-1.367724895E0,-4.543541431E0
4.963820830E-1,-2.429171801E0,-1.422789097E0,-4.409471989E0
4.987286460E-1,-2.323831558E0,-1.418000817E0,-4.213155746E0
5.010752080E-1,-2.326225758E0,-1.489823818E0,-4.062327385E0
5.034225520E-1,-2.295102358E0,-1.566434979E0,-3.894740582E0
5.057698960E-1,-2.328619719E0,-1.671775341E0,-3.650542736E0
5.081164580E-1,-2.398048639E0,-1.832180023E0,-3.466197014E0
5.104630730E-1,-2.496206760E0,-1.999766827E0,-3.334521532E0
5.128104160E-1,-2.601547003E0,-2.138624668E0,-3.190875769E0
5.151577600E-1,-2.680552244E0,-2.277482271E0,-3.044835567E0
5.175042710E-1,-2.788286686E0,-2.373246431E0,-2.882036924E0
5.198508850E-1,-2.919962168E0,-2.428310633E0,-2.621080160E0
5.221982290E-1,-2.972632408E0,-2.471404314E0,-2.273935556E0
5.245455730E-1,-3.080366611E0,-2.509710073E0,-1.833421826E0
5.268921350E-1,-3.214436531E0,-2.495345354E0,-1.392907500E0
5.292386980E-1,-3.338929415E0,-2.452251673E0,-9.332405329E-1
5.315860410E-1,-3.482575417E0,-2.437887192E0,-4.879381955E-1
5.339333850E-1,-3.678891182E0,-2.401975632E0,-8.812370896E-2
5.362799480E-1,-3.784232140E0,-2.320576429E0,2.925379872E-1
5.386265100E-1,-3.927877903E0,-2.270300150E0,5.870121717E-1
5.409738540E-1,-4.076312065E0,-2.186506510E0,7.952987552E-1
5.433211980E-1,-4.212775230E0,-2.090742826E0,8.814863563E-1
5.456677600E-1,-4.351633549E0,-2.042860746E0,9.054272771E-1
5.480143750E-1,-4.411486149E0,-1.992584586E0,8.886685967E-1
5.503617190E-1,-4.440215111E0,-1.987796426E0,9.820384383E-1
5.527090100E-1,-4.497673512E0,-2.095530987E0,1.013161659E0
5.550555730E-1,-4.586255074E0,-2.229600668E0,1.070620060E0
5.574021870E-1,-4.600619316E0,-2.380428553E0,1.245389223E0
5.597495310E-1,-4.521614552E0,-2.595897675E0,1.482405066E0
5.620968750E-1,-4.409091473E0,-2.887977600E0,1.700267911E0
5.644434370E-1,-4.248686790E0,-3.223151445E0,1.925313354E0
5.667900000E-1,-4.059553146E0,-3.577478170E0,2.174299479E0
5.691373440E-1,-3.856054783E0,-4.008415699E0,2.480744362E0
5.714846870E-1,-3.621433258E0,-4.396259785E0,2.794371367E0
5.738312500E-1,-3.408358335E0,-4.858321190E0,3.153486013E0
5.761778120E-1,-3.168948412E0,-5.313199520E0,3.481477499E0
5.785251560E-1,-2.972632408E0,-5.746531487E0,3.845380545E0
5.808725000E-1,-2.761951685E0,-6.203804493E0,4.249983311E0
5.832190620E-1,-2.548877001E0,-6.675442219E0,4.702467918E0
5.855656770E-1,-2.328619719E0,-7.182990551E0,5.214805126E0
5.879130210E-1,-2.115544796E0,-7.728845119E0,5.856423378E0
5.902603120E-1,-1.835435510E0,-8.279487610E0,6.533953667E0
5.926068750E-1,-1.497867703E0,-8.866041183E0,7.259365559E0
5.949534890E-1,-1.141146898E0,-9.481324196E0,7.999142170E0
5.973008330E-1,-8.227317333E-1,-1.015646076E1,8.841864586E0
5.996481770E-1,-4.875579178E-1,-1.088666058E1,9.754015923E0
6.019947390E-1,-1.164726317E-1,-1.165995502E1,1.064701462E1
6.043413020E-1,2.689772844E-1,-1.248591900E1,1.148255539E1
6.066886460E-1,6.616095304E-1,-1.338370609E1,1.210741425E1
6.090359890E-1,1.030300736E0,-1.430543327E1,1.220557213E1
6.113825520E-1,1.317592502E0,-1.510506248E1,1.163817120E1
6.137291140E-1,1.401386023E0,-1.585202122E1,1.039563465E1
6.160764580E-1,1.267316461E0,-1.651758194E1,8.963963509E0
6.184238020E-1,8.794724941E-1,-1.705385971E1,7.927319050E0
6.207703640E-1,3.144651651E-1,-1.746085548E1,7.635239124E0
6.231169790E-1,-2.984241545E-1,-1.760210800E1,7.996748447E0
6.254643230E-1,-9.544072151E-1,-1.748479843E1,8.817923546E0
6.278116140E-1,-1.435621023E0,-1.716638184E1,9.694163322E0
6.301581770E-1,-1.732489228E0,-1.677135658E1,1.043633366E1
6.325047910E-1,-1.900076270E0,-1.623507690E1,1.098937035E1
6.348521350E-1,-2.012598753E0,-1.562458229E1,1.136524487E1
6.371994270E-1,-2.062874794E0,-1.498775291E1,1.164535332E1
6.395459890E-1,-2.132303715E0,-1.434373951E1,1.186800480E1
6.418926040E-1,-2.163426876E0,-1.363269234E1,1.219839096E1
6.442399480E-1,-2.129909754E0,-1.286897469E1,1.269396973E1
6.465872910E-1,-2.072451115E0,-1.205737591E1,1.337628746E1
6.489338540E-1,-1.957534432E0,-1.121704674E1,1.413042831E1
6.512804160E-1,-1.885711551E0,-1.040065861E1,1.493723965E1
6.536277600E-1,-1.864164710E0,-9.620182991E0,1.576080990E1
6.559751040E-1,-1.773188949E0,-8.846888542E0,1.634257507E1
6.583216660E-1,-1.557720065E0,-8.150206566E0,1.627554131E1
6.606682290E-1,-1.256063700E0,-7.510982037E0,1.575602150E1
6.630155730E-1,-9.831364155E-1,-6.957945824E0,1.477204704E1
6.653629160E-1,-6.647212505E-1,-6.503066540E0,1.346486855E1
6.677094790E-1,-5.067106485E-1,-6.108040810E0,1.177224064E1
6.700560940E-1,-3.558824956E-1,-5.720196724E0,9.959908485E0
6.724034370E-1,-2.146306336E-1,-5.365869522E0,8.137999535E0
6.747507290E-1,-1.356253922E-1,-5.047454834E0,6.495647907E0
6.770972910E-1,-1.140784919E-1,-4.767344952E0,5.052006721E0
6.794439060E-1,-1.356253922E-1,-4.563846588E0,3.835804224E0
6.817912500E-1,-2.266011536E-1,-4.436959743E0,2.796765327E0
6.841385940E-1,-4.755874574E-1,-4.503993988E0,2.112053156E0
6.864851040E-1,-7.580912113E-1,-4.855926514E0,1.867854953E0
6.888317190E-1,-1.162693739E0,-5.454451561E0,2.045018435E0
6.911790620E-1,-1.612784505E0,-6.368997097E0,2.339492559E0
6.935264060E-1,-2.153850555E0,-7.539711475E0,2.782400846E0
6.958729690E-1,-2.591970682E0,-8.844494820E0,3.134333372E0
6.982195310E-1,-3.056425571E0,-1.007266808E1,3.179821014E0
7.005668750E-1,-3.666921139E0,-1.138463402E1,3.028992891E0
7.029142190E-1,-4.279810429E0,-1.276124096E1,2.839859009E0
7.052607810E-1,-4.595831394E0,-1.402771854E1,2.384980440E0
7.076073960E-1,-4.770600319E0,-1.523195076E1,1.927707553E0
7.099547390E-1,-5.084227562E0,-1.655349350E1,1.496769547E0
7.123020310E-1,-5.725845814E0,-1.801149940E1,1.331576824E0
7.146485940E-1,-6.286065102E0,-1.948865700E1,1.276512623E0
7.169952080E-1,-6.381828785E0,-2.068331337E1,1.082590580E0
7.193425520E-1,-6.654756546E0,-2.211498451E1,9.892207980E-1
7.216898960E-1,-7.265251637E0,-2.379085350E1,1.049073219E0
7.240364060E-1,-7.985875130E0,-2.560079193E1,1.417764306E0
7.263830210E-1,-8.747199059E0,-2.756155968E1,1.776879191E0
7.287303640E-1,-9.319388390E0,-2.951514435E1,2.083323717E0
7.310777080E-1,-1.002085876E1,-3.150224495E1,2.873376608E0
7.334242710E-1,-1.048770809E1,-3.317332840E1,4.036908627E0
7.357708330E-1,-1.112932682E1,-3.495454025E1,6.373548985E0
7.381181770E-1,-1.156744671E1,-3.667350006E1,9.686980247E0
7.404655210E-1,-1.180685711E1,-3.806686783E1,1.322785378E1
7.428120830E-1,-1.184755611E1,-3.865581512E1,1.552139950E1
7.451586460E-1,-1.124903202E1,-3.757847214E1,1.555012894E1
7.475059890E-1,-1.022196293E1,-3.490426254E1,1.395565987E1
7.498533330E-1,-8.869297981E0,-3.077443886E1,1.099655247E1
7.521998960E-1,-7.349044800E0,-2.574922562E1,6.976861477E0
7.545465100E-1,-5.869492054E0,-2.082456589E1,2.432862282E0
7.568938540E-1,-4.842423439E0,-1.637632942E1,-2.269147635E0
7.592411460E-1,-4.205593586E0,-1.224411488E1,-6.375026703E0
7.615877080E-1,-3.731561661E0,-8.411163330E0,-9.331739426E0
7.639343230E-1,-3.279076815E0,-4.779315472E0,-1.080171680E1
7.662816660E-1,-2.905597687E0,-1.441941857E0,-1.120153046E1
7.686290100E-1,-2.534512281E0,1.565046072E0,-1.075144005E1
7.709755730E-1,-2.003022432E0,4.287136555E0,-9.858441353E0
7.733221350E-1,-1.392527342E0,6.705175877E0,-9.262310028E0
7.756694790E-1,-7.556970119E-1,8.807195663E0,-9.058812141E0
7.780168230E-1,-1.164726317E-1,1.055967522E1,-9.190487862E0
7.803633850E-1,5.395104289E-1,1.212541676E1,-9.628607750E0
7.827099480E-1,1.061424017E0,1.329613018E1,-9.865623474E0
7.850572910E-1,1.834717870E0,1.404787731E1,-9.844076157E0
7.874046350E-1,2.679834843E0,1.446445084E1,-9.391591072E0
7.897511980E-1,3.548892498E0,1.427770996E1,-8.623085976E0
7.920978120E-1,4.235999107E0,1.358342266E1,-7.483494282E0
7.944451560E-1,4.678906918E0,1.253959560E1,-6.025488377E0
7.967924480E-1,5.095480442E0,1.110792446E1,-5.067848682E0
7.991390100E-1,5.373196125E0,9.317138672E0,-4.471718311E0
8.014856250E-1,5.921444416E0,7.200754166E0,-4.512417793E0
8.038329690E-1,6.737832069E0,4.600763321E0,-5.441328526E0
8.061802600E-1,7.470426559E0,1.536316991E0,-7.253661633E0
8.085268230E-1,7.664348602E0,-1.856120944E0,-9.434685707E0
8.108734370E-1,7.259745598E0,-5.203071117E0,-1.157261562E1
