"Time (s)","Acceleration x (m/s^2)","Acceleration y (m/s^2)","Acceleration z (m/s^2)"
0.000000000E0,-3.293157578E0,9.710374832E0,3.293444872E0
1.998438000E-3,-2.906350136E0,9.699620247E0,3.240379572E0
3.996875000E-3,-2.690306902E0,9.731491089E0,3.096784830E0
5.996875000E-3,-2.634129286E0,9.798932076E0,2.882637978E0
7.998438000E-3,-2.702028990E0,9.880516052E0,2.613769054E0
9.998438000E-3,-2.886324883E0,9.959591866E0,2.332105637E0
1.218125000E-2,-3.147120714E0,1.002412033E1,2.060966969E0
1.384687500E-2,-3.482510090E0,1.009472084E1,1.812573433E0
1.599843800E-2,-3.676076412E0,1.012002277E1,1.674064040E0
1.799843800E-2,-4.024748802E0,1.013126564E1,1.406535983E0
2.017812500E-2,-4.353338718E0,1.013706970E1,1.182400346E0
2.199843800E-2,-4.628653049E0,1.013727093E1,9.813641310E-1
2.399843800E-2,-4.852347851E0,1.012162209E1,8.168345690E-1
2.599843800E-2,-5.003412247E0,1.012073994E1,7.007732391E-1
2.799843800E-2,-5.072068214E0,1.012834454E1,5.670523047E-1
2.999843800E-2,-5.043663502E0,1.013426304E1,4.569765031E-1
3.199843800E-2,-4.917508125E0,1.012181377E1,3.812814057E-1
3.399843800E-2,-4.687827587E0,1.007526112E1,3.382719755E-1
3.599843800E-2,-4.300455570E0,9.890371323E0,3.629705608E-1
3.799843800E-2,-3.863264561E0,9.713199615E0,3.646752238E-1
3.999843800E-2,-3.462733984E0,9.630934715E0,3.625683188E-1
4.199843800E-2,-3.034344196E0,9.518062592E0,4.247218072E-1
4.399843800E-2,-2.608654976E0,9.408292770E0,4.753735363E-1
4.599843800E-2,-2.165143490E0,9.278891563E0,5.289844871E-1
4.799843800E-2,-1.742748976E0,9.162082672E0,5.864932537E-1
4.999843800E-2,-1.368104339E0,9.021562576E0,6.810450554E-1
5.199843800E-2,-1.071405292E0,8.874721527E0,7.813045979E-1
5.399843800E-2,-8.623531461E-1,8.730188370E0,8.861323595E-1
5.599843800E-2,-7.153108716E-1,8.563714981E0,9.927604795E-1
5.799843800E-2,-6.162195802E-1,8.427647591E0,1.075609446E0
6.017968800E-2,-5.261880755E-1,8.317533493E0,1.090175748E0
6.235156300E-2,-4.839352071E-1,8.225423813E0,1.075590372E0
6.399843800E-2,-5.114876628E-1,8.156825066E0,1.047080159E0
6.599843800E-2,-6.153768897E-1,8.125049591E0,1.006867170E0
6.799843800E-2,-7.898375988E-1,8.124484062E0,9.600461721E-1
6.999843800E-2,-1.032590508E0,8.149785995E0,9.046060443E-1
7.199843800E-2,-1.329452276E0,8.176227570E0,7.940513492E-1
7.399843800E-2,-1.671373010E0,8.245937347E0,7.049008608E-1
7.599843800E-2,-2.011646509E0,8.312065125E0,5.656732321E-1
7.799843800E-2,-2.402274847E0,8.405707359E0,3.809270561E-1
7.999843800E-2,-2.856560230E0,8.541266441E0,1.343338639E-1
8.199843800E-2,-3.403463125E0,8.746612549E0,-2.204868197E-1
8.399843800E-2,-4.030954361E0,9.010654449E0,-6.624564528E-1
8.599843800E-2,-4.730827808E0,9.326267242E0,-1.150298953E0
8.799843800E-2,-5.419984341E0,9.591737747E0,-1.689023018E0
8.999843800E-2,-6.043357849E0,9.780189514E0,-2.241528273E0
9.199843800E-2,-6.456453323E0,9.883666992E0,-2.958620310E0
9.399843800E-2,-6.715563297E0,9.946806908E0,-3.841372013E0
9.599843800E-2,-6.881826401E0,9.975670815E0,-4.856187820E0
9.799843800E-2,-6.997897625E0,1.001823044E1,-5.873359680E0
1.001781250E-1,-7.024654865E0,1.008348751E1,-6.806447029E0
1.019984380E-1,-6.897407532E0,1.014797783E1,-7.645672321E0
1.039984380E-1,-6.640663147E0,1.018968487E1,-8.383872032E0
1.059984380E-1,-6.262427330E0,1.021928596E1,-9.082960129E0
1.079984380E-1,-5.751562119E0,1.020471954E1,-9.779155731E0
1.099984380E-1,-5.177873135E0,1.013492393E1,-1.042887402E1
1.119984380E-1,-4.606338978E0,1.002120876E1,-1.100135612E1
1.139984380E-1,-4.043845177E0,9.878140450E0,-1.142769718E1
1.159984380E-1,-3.528631926E0,9.715613365E0,-1.167260456E1
1.179984380E-1,-3.160911322E0,9.591161728E0,-1.178879070E1
1.201484380E-1,-3.019950151E0,9.552309990E0,-1.177841854E1
1.221687500E-1,-3.127066851E0,9.601218224E0,-1.161841869E1
1.240656250E-1,-3.432078600E0,9.724001884E0,-1.126172161E1
1.259984380E-1,-3.856675863E0,9.874645233E0,-1.070816326E1
1.279984380E-1,-4.357715130E0,1.000857735E1,-9.986330032E0
1.299984380E-1,-4.942705154E0,1.007944489E1,-9.155427933E0
1.319984380E-1,-5.530892849E0,1.009410763E1,-8.349624634E0
1.339984380E-1,-6.035542965E0,1.008538246E1,-7.694054604E0
1.359984380E-1,-6.360723495E0,1.005322456E1,-7.281926155E0
1.379984380E-1,-6.428872108E0,1.000943947E1,-7.118833065E0
1.401781250E-1,-6.181531906E0,9.965021133E0,-7.294988632E0
1.423515630E-1,-5.386551857E0,9.814665794E0,-8.206231117E0
1.439984380E-1,-4.113650322E0,9.526968956E0,-9.658094406E0
1.459984380E-1,-2.749280930E0,9.186590195E0,-1.067029572E1
1.479984380E-1,-1.546434045E0,8.762251854E0,-1.080115318E1
1.499984380E-1,-6.634333134E-1,8.294653893E0,-1.016928482E1
1.519984380E-1,-1.042052358E-1,7.857616901E0,-9.237577438E0
1.539984380E-1,2.071176022E-1,7.530971050E0,-8.355485916E0
1.559984380E-1,4.654040933E-1,7.276495934E0,-7.641736507E0
1.579984380E-1,7.551503778E-1,7.028140545E0,-7.044047832E0
1.600296880E-1,9.763746262E-1,6.790808678E0,-6.415148258E0
1.619984380E-1,1.032073379E0,6.610840797E0,-5.678031445E0
1.639984380E-1,8.964369893E-1,6.488191128E0,-4.820830345E0
1.659984380E-1,4.672332406E-1,6.487118244E0,-3.780636072E0
1.679984380E-1,-5.007520914E-1,6.708983898E0,-2.442373037E0
1.701796880E-1,-2.173982859E0,7.207696438E0,-7.515973449E-1
1.723609380E-1,-4.203873634E0,7.851363182E0,9.859705567E-1
1.739984380E-1,-5.750173569E0,8.375089645E0,2.212682962E0
1.759984380E-1,-6.112569332E0,8.539264679E0,2.775004148E0
1.779984380E-1,-5.370548725E0,8.366720200E0,3.294775963E0
1.801781250E-1,-4.935867310E0,8.314085960E0,4.185083389E0
1.819984380E-1,-5.313959599E0,8.560976028E0,5.223564148E0
1.839984380E-1,-5.961590767E0,8.921792030E0,6.123630524E0
1.859984380E-1,-6.483593941E0,9.276478767E0,6.827123642E0
1.879984380E-1,-6.693287373E0,9.574843407E0,7.279943943E0
1.899984380E-1,-6.596561909E0,9.757147789E0,7.481219769E0
1.919984380E-1,-6.346281528E0,9.808259010E0,7.395813465E0
1.939984380E-1,-6.027211189E0,9.723427773E0,6.678826809E0
1.959984380E-1,-5.566710472E0,9.486870766E0,5.225220680E0
1.979984380E-1,-4.933376789E0,9.150265694E0,3.341118097E0
1.999984380E-1,-4.157885551E0,8.792897224E0,1.473707795E0
2.019984380E-1,-3.282843351E0,8.433000565E0,-1.563892514E-2
2.039984380E-1,-2.390715837E0,8.067454338E0,-1.019853354E0
2.059984380E-1,-1.606662631E0,7.737121582E0,-1.554775357E0
2.079984380E-1,-1.044676423E0,7.499233246E0,-1.714085579E0
2.099984380E-1,-7.026695013E-1,7.351587772E0,-1.585430741E0
2.119984380E-1,-5.016714334E-1,7.252334118E0,-1.286117315E0
2.140078130E-1,-3.722504973E-1,7.214055061E0,-9.499904513E-1
2.160031250E-1,-2.835596502E-1,7.233065605E0,-6.438487172E-1
2.180031250E-1,-2.360108346E-1,7.318883419E0,-4.046488106E-1
2.201843750E-1,-2.217701077E-1,7.459748745E0,-2.242792398E-1
2.222859380E-1,-2.487575561E-1,7.654444695E0,-3.889141232E-2
2.241812500E-1,-3.154983222E-1,7.884144306E0,1.502122134E-1
2.260031250E-1,-4.221265018E-1,8.149479866E0,3.605093062E-1
2.280031250E-1,-5.616318583E-1,8.428030014E0,6.211324930E-1
2.300031250E-1,-7.109916806E-1,8.655461311E0,9.426546693E-1
2.320031250E-1,-8.355284929E-1,8.812271118E0,1.251305580E0
2.340031250E-1,-8.992047310E-1,8.863842010E0,1.468316078E0
2.360031250E-1,-8.992429972E-1,8.810901642E0,1.626505733E0
2.380031250E-1,-8.408053517E-1,8.697100639E0,1.718826175E0
2.400031250E-1,-7.467898130E-1,8.517660141E0,1.757047176E0
2.420343750E-1,-6.412438154E-1,8.266680717E0,1.822389722E0
2.440031250E-1,-5.659796596E-1,7.979318619E0,1.926547170E0
2.460031250E-1,-5.696954727E-1,7.687025070E0,2.086585283E0
2.480031250E-1,-6.724929214E-1,7.413396358E0,2.273476601E0
2.500031250E-1,-8.457086682E-1,7.162896156E0,2.434730768E0
2.520031250E-1,-1.067718148E0,6.948806763E0,2.578880787E0
2.540031250E-1,-1.332057238E0,6.755000591E0,2.620674133E0
2.560031250E-1,-1.730960011E0,6.632561207E0,2.449565172E0
2.580031250E-1,-2.273677588E0,6.632398605E0,2.125878572E0
2.601828130E-1,-2.712937117E0,6.691381931E0,1.914451480E0
2.620546880E-1,-2.921644211E0,6.755680561E0,1.887770653E0
2.640031250E-1,-2.955718517E0,6.820706844E0,1.906924248E0
2.660031250E-1,-2.870063782E0,6.882917881E0,1.869191527E0
2.680031250E-1,-2.761539221E0,6.951306343E0,1.779878259E0
2.700031250E-1,-2.762295961E0,7.100349903E0,1.694242477E0
2.720031250E-1,-2.753303289E0,7.270587444E0,1.105948806E0
2.740031250E-1,-2.503856182E0,7.274063587E0,1.669045836E-1
2.760031250E-1,-2.001610041E0,6.982727528E0,-7.810173631E-1
2.780031250E-1,-1.456344962E0,6.437491417E0,-1.652037501E0
2.800031250E-1,-9.391399622E-1,5.763714790E0,-2.059377432E0
2.820031250E-1,-3.828711510E-1,5.160892963E0,-1.801339865E0
2.840031250E-1,2.141948491E-1,4.682570457E0,-1.036622286E0
2.860031250E-1,8.055626750E-1,4.334519863E0,5.104437936E-3
2.880031250E-1,1.373390794E0,4.054934978E0,1.129842877E0
2.900031250E-1,1.889992476E0,3.821806669E0,2.127362967E0
2.920031250E-1,2.332690001E0,3.643065214E0,2.829659224E0
2.940031250E-1,2.674744606E0,3.517972946E0,3.131845713E0
2.960031250E-1,2.900623322E0,3.443053484E0,3.085857868E0
2.980031250E-1,3.015238523E0,3.441224337E0,2.869728565E0
3.001828130E-1,3.049695730E0,3.476802349E0,2.635594845E0
3.022859380E-1,3.005010605E0,3.545946836E0,2.540391684E0
3.041812500E-1,2.901255369E0,3.681516171E0,2.729188681E0
3.060031250E-1,2.756070852E0,3.897032499E0,3.205108166E0
3.080031250E-1,2.569552898E0,4.195886135E0,3.885253191E0
3.100031250E-1,2.356794596E0,4.541187286E0,4.584436417E0
3.120031250E-1,2.114357948E0,4.871912956E0,5.210348129E0
3.140031250E-1,1.840336680E0,5.173678398E0,5.747616291E0
3.160031250E-1,1.551212907E0,5.421727180E0,6.183926105E0
3.180031250E-1,1.223801017E0,5.628873348E0,6.541782856E0
3.200031250E-1,7.326161265E-1,5.754981041E0,6.979069233E0
3.220031250E-1,9.606494755E-2,5.790530205E0,7.666090488E0
3.240046880E-1,-4.864730537E-1,5.790539742E0,8.271257401E0
3.260031250E-1,-9.926838875E-1,5.759232998E0,8.612499237E0
3.280031250E-1,-1.664123416E0,5.594943047E0,8.722296715E0
3.300031250E-1,-2.299956322E0,5.405178547E0,8.680494308E0
3.320031250E-1,-2.796743631E0,5.213087082E0,8.687666893E0
3.340031250E-1,-3.151765347E0,5.035877228E0,8.870143890E0
3.360031250E-1,-3.330803633E0,4.871213913E0,9.143714905E0
3.380031250E-1,-3.360099316E0,4.739360332E0,9.336639404E0
3.401828130E-1,-3.286147118E0,4.662276745E0,9.496448517E0
3.420531250E-1,-3.198902607E0,4.663234234E0,9.837104797E0
3.440031250E-1,-3.098968506E0,4.755746365E0,1.019662666E1
3.460031250E-1,-2.927936316E0,4.915209770E0,1.028815365E1
3.480031250E-1,-2.697307587E0,5.112118721E0,1.020420170E1
3.500031250E-1,-2.440696955E0,5.334434509E0,1.037395096E1
3.520031250E-1,-2.163812399E0,5.618779659E0,1.127399921E1
3.540031250E-1,-1.763904214E0,5.971100807E0,1.322418118E1
3.560031250E-1,-1.027639270E0,6.346981049E0,1.616672325E1
3.580031250E-1,7.972691208E-2,6.708486557E0,1.949699974E1
3.600031250E-1,1.305031538E0,7.002685547E0,2.208313942E1
3.620031250E-1,2.075437784E0,7.193589687E0,2.280263519E1
3.640031250E-1,2.234967947E0,7.265817642E0,2.183604813E1
3.660031250E-1,2.146928549E0,7.196500778E0,2.017259598E1
3.680031250E-1,2.075945377E0,6.978685856E0,1.870302582E1
3.700031250E-1,2.061417341E0,6.627217293E0,1.769142532E1
3.720031250E-1,2.054522038E0,6.208021641E0,1.682069397E1
3.740031250E-1,2.022947311E0,5.777907848E0,1.556397724E1
3.760031250E-1,1.860505342E0,5.377559185E0,1.375427723E1
3.780031250E-1,1.523641229E0,5.028091908E0,1.171631336E1
3.801843750E-1,1.012632370E0,4.742856026E0,1.008650398E1
3.823015630E-1,4.402553737E-1,4.524552822E0,9.291647911E0
3.841953130E-1,-2.870169096E-2,4.377702236E0,9.061881065E0
3.860031250E-1,-1.945336759E-1,4.329080582E0,8.397316933E0
3.880031250E-1,-2.989017069E-1,4.250522137E0,7.625733376E0
3.900031250E-1,-4.718205333E-1,4.134604454E0,7.320482254E0
3.920031250E-1,-6.753947139E-1,4.155376434E0,7.689218044E0
3.940031250E-1,-8.978543878E-1,4.322108746E0,8.394904137E0
3.960031250E-1,-1.169117451E0,4.554451466E0,9.185306549E0
3.980031250E-1,-1.508864284E0,4.779229164E0,9.946041107E0
4.000031250E-1,-1.863244414E0,4.997493744E0,1.063305187E1
4.020031250E-1,-2.177277327E0,5.214188099E0,1.117777157E1
4.040031250E-1,-2.419532537E0,5.384129047E0,1.155060577E1
4.060031250E-1,-2.588639736E0,5.533267975E0,1.177090168E1
4.080031250E-1,-2.678450823E0,5.689571381E0,1.180921745E1
4.100031250E-1,-2.688678980E0,5.827372074E0,1.175424671E1
4.120031250E-1,-2.632731199E0,5.923369884E0,1.164272594E1
4.140031250E-1,-2.501260757E0,5.978647232E0,1.144714737E1
4.160031250E-1,-2.312492371E0,5.989335060E0,1.119631195E1
4.180031250E-1,-2.074144840E0,5.936853886E0,1.092114162E1
4.201828130E-1,-1.804940820E0,5.845069885E0,1.060333538E1
4.220531250E-1,-1.522989988E0,5.715888023E0,1.026741886E1
4.240046880E-1,-1.248317599E0,5.525482655E0,9.879788399E0
4.260031250E-1,-9.955473542E-1,5.306336403E0,9.551188469E0
4.280031250E-1,-7.869549394E-1,5.101028919E0,9.353906631E0
4.300031250E-1,-6.126474738E-1,4.919031143E0,9.206509590E0
4.320031250E-1,-4.772026837E-1,4.776221752E0,9.038647652E0
4.340031250E-1,-4.032027423E-1,4.676967621E0,8.945858002E0
4.360031250E-1,-4.063917994E-1,4.609048843E0,8.953806877E0
4.380031250E-1,-4.694263339E-1,4.575510979E0,8.941348076E0
4.400031250E-1,-5.799043775E-1,4.586658001E0,8.856104851E0
4.420031250E-1,-7.305283546E-1,4.621929646E0,8.787802696E0
4.440046880E-1,-9.403179288E-1,4.687416077E0,8.882621765E0
4.460031250E-1,-1.178378224E0,4.780368805E0,8.939987183E0
4.480031250E-1,-1.430449367E0,4.906006336E0,8.899706841E0
4.500031250E-1,-1.679992199E0,5.072001457E0,8.736173630E0
4.520031250E-1,-2.003841400E0,5.246778488E0,8.492012978E0
4.540046880E-1,-2.423391819E0,5.436369896E0,8.030468941E0
4.560031250E-1,-2.942952633E0,5.674717903E0,7.397958755E0
4.580031250E-1,-3.549538136E0,5.987266541E0,6.639868259E0
4.601843750E-1,-4.284529209E0,6.486074448E0,5.907826424E0
4.622875000E-1,-5.108776569E0,7.166669369E0,5.218114853E0
4.643562500E-1,-5.946919441E0,7.953805923E0,4.602652073E0
4.658500000E-1,-6.928618431E0,8.981578827E0,4.029393673E0
4.680031250E-1,-7.103107929E0,9.197699547E0,3.984918833E0
4.700031250E-1,-7.178381920E0,9.421854019E0,4.287450314E0
4.720031250E-1,-6.876300335E0,9.422657967E0,5.101727962E0
4.740031250E-1,-6.176283836E0,9.218059540E0,5.985561371E0
4.760031250E-1,-5.209514618E0,8.880898476E0,6.420271873E0
4.780031250E-1,-4.181128502E0,8.571597099E0,6.362552643E0
4.800031250E-1,-3.215575695E0,8.332290649E0,5.864501476E0
4.820031250E-1,-2.444374561E0,8.166804314E0,5.130754948E0
4.840031250E-1,-1.902490139E0,8.080220222E0,4.442029476E0
4.860031250E-1,-1.548483491E0,8.075345039E0,3.898919106E0
4.880031250E-1,-1.338933349E0,8.128928185E0,3.590459824E0
4.900031250E-1,-1.268132091E0,8.153721809E0,3.519208193E0
4.920031250E-1,-1.247149348E0,8.113691330E0,3.619946718E0
4.940031250E-1,-1.148038864E0,7.974770069E0,3.691571712E0
4.960031250E-1,-1.027198672E0,7.780916214E0,3.991268396E0
4.980031250E-1,-9.330491424E-1,7.575675964E0,4.479503632E0
5.001828130E-1,-9.350411296E-1,7.319199085E0,5.267301083E0
5.020546880E-1,-1.255691767E0,6.893730640E0,7.662528038E0
5.040031250E-1,-1.671966791E0,6.458177090E0,1.034508705E1
5.060031250E-1,-1.969403267E0,6.238216877E0,1.185608673E1
5.080031250E-1,-2.097770691E0,6.184826374E0,1.222597122E1
5.100031250E-1,-1.959338069E0,6.223861217E0,1.099431705E1
5.120031250E-1,-1.716891646E0,6.083867550E0,8.893960953E0
5.140031250E-1,-1.576514721E0,5.918830395E0,7.636976719E0
5.160031250E-1,-1.534424663E0,5.794676781E0,6.896823883E0
5.180031250E-1,-1.609803677E0,5.717066288E0,6.331725121E0
5.201843750E-1,-1.778355598E0,5.779966831E0,6.119847775E0
5.222281250E-1,-1.994532824E0,5.948441982E0,6.298149109E0
5.240062500E-1,-2.209972620E0,6.112023354E0,6.471517563E0
5.260031250E-1,-2.397294998E0,6.244470596E0,6.189528465E0
5.280031250E-1,-2.562092781E0,6.344912052E0,5.075535297E0
5.300031250E-1,-2.749462843E0,6.406375885E0,3.202407360E0
5.320031250E-1,-3.089908838E0,6.425185204E0,1.771259189E0
5.340031250E-1,-3.661318541E0,6.429465771E0,2.032840014E0
5.360031250E-1,-4.403185844E0,6.434656143E0,4.044725895E0
5.380031250E-1,-5.187105179E0,6.428134918E0,6.847349644E0
5.401843750E-1,-5.881796837E0,6.374993324E0,9.489437103E0
5.424343750E-1,-6.436667442E0,6.258491039E0,1.138850880E1
5.440734380E-1,-6.973974228E0,5.985657692E0,1.252096558E1
5.460031250E-1,-7.065413475E0,5.876299858E0,1.250078773E1
5.480031250E-1,-7.111708164E0,5.645738125E0,1.206411457E1
5.500031250E-1,-6.980869770E0,5.411058426E0,1.134470367E1
5.520031250E-1,-6.684668541E0,5.188474655E0,1.059997368E1
5.540031250E-1,-6.262944221E0,5.013295174E0,9.955128670E0
5.560031250E-1,-5.746179581E0,4.893365383E0,9.434849739E0
5.580031250E-1,-5.135620117E0,4.833280087E0,9.007082939E0
5.600031250E-1,-4.485843182E0,4.832705498E0,8.680675507E0
5.620031250E-1,-3.874201298E0,4.927209377E0,8.379524231E0
5.640046880E-1,-3.362780809E0,5.120096207E0,8.133457184E0
5.660031250E-1,-2.998373747E0,5.386877537E0,8.030851364E0
5.680031250E-1,-2.785490990E0,5.724287033E0,8.132987976E0
5.700031250E-1,-2.701042414E0,6.100483418E0,8.443305969E0
5.720031250E-1,-2.772121668E0,6.499280930E0,8.968612671E0
5.740046880E-1,-3.003765345E0,6.863821983E0,9.583740234E0
5.760031250E-1,-3.415501118E0,7.161813736E0,1.014950943E1
5.780031250E-1,-3.995395899E0,7.354843616E0,1.059987831E1
5.801828130E-1,-4.677341461E0,7.466356277E0,1.089942074E1
5.822015630E-1,-5.393648148E0,7.468913078E0,1.102461910E1
5.838500000E-1,-6.129817486E0,7.284253597E0,1.042777348E1
5.860031250E-1,-6.221725464E0,7.178793430E0,1.003271103E1
5.880031250E-1,-6.241884708E0,6.925199509E0,9.132519722E0
5.900031250E-1,-6.120728970E0,6.652174473E0,8.217187881E0
5.920031250E-1,-5.930428028E0,6.356576443E0,7.326180458E0
5.940031250E-1,-5.744398594E0,6.059820175E0,6.560878754E0
5.960031250E-1,-5.628979206E0,5.781240940E0,6.046977520E0
5.980031250E-1,-5.646073341E0,5.536773205E0,5.827276230E0
6.000031250E-1,-5.768867016E0,5.324733257E0,5.876989365E0
6.020031250E-1,-5.967365742E0,5.148922443E0,6.087544918E0
6.040031250E-1,-6.195466518E0,4.976271629E0,6.336599827E0
6.061500000E-1,-6.417581081E0,4.821194172E0,6.531774998E0
6.080031250E-1,-6.663676262E0,4.646120548E0,6.658083439E0
6.100031250E-1,-6.686085701E0,4.596177578E0,6.633777142E0
6.120031250E-1,-6.568204880E0,4.642194271E0,6.550478458E0
6.140031250E-1,-6.312398911E0,4.831364632E0,6.390536308E0
6.160031250E-1,-5.930542946E0,5.158298016E0,6.146126270E0
6.180031250E-1,-5.450016975E0,5.557756424E0,5.858621120E0
6.201843750E-1,-4.894820690E0,5.967576504E0,5.574151993E0
6.222843750E-1,-4.291874409E0,6.350141048E0,5.297028065E0
6.243531250E-1,-3.657124043E0,6.684754848E0,4.997378826E0
6.262734380E-1,-3.011991978E0,6.959436893E0,4.670388222E0
6.284937500E-1,-2.379855633E0,7.164074421E0,4.404230118E0
6.300718750E-1,-1.804921627E0,7.300007343E0,4.271380424E0
6.320031250E-1,-1.303527951E0,7.380883217E0,4.230602264E0
6.340031250E-1,-8.924722075E-1,7.428116322E0,4.283973694E0
6.360031250E-1,-5.125219822E-1,7.432463646E0,4.341042042E0
6.380031250E-1,-1.096257120E-1,7.398351669E0,4.443101883E0
6.400031250E-1,3.146651387E-1,7.329992294E0,4.482395649E0
6.420031250E-1,7.315148115E-1,7.249537468E0,4.497144222E0
6.440031250E-1,1.094609857E0,7.206182957E0,4.513472557E0
6.460031250E-1,1.376014829E0,7.205809593E0,4.555725098E0
6.480031250E-1,1.535382390E0,7.223009586E0,4.609288692E0
6.500031250E-1,1.562369823E0,7.249997139E0,4.606185436E0
6.520031250E-1,1.480698824E0,7.260368824E0,4.579514027E0
6.540031250E-1,1.318678498E0,7.246846199E0,4.524964333E0
6.560031250E-1,1.081633329E0,7.214629650E0,4.420721054E0
6.580031250E-1,8.173613548E-1,7.150503635E0,4.283380032E0
6.601828130E-1,5.754703283E-1,7.039814949E0,4.143712044E0
6.620796880E-1,3.654317856E-1,6.919760227E0,4.052770615E0
6.640031250E-1,1.914403737E-1,6.805317402E0,4.054197311E0
6.660031250E-1,6.706637889E-2,6.686555386E0,4.143950939E0
6.680031250E-1,-1.133893989E-2,6.562842369E0,4.307935238E0
6.700031250E-1,-8.689036220E-2,6.442107201E0,4.563338757E0
6.720046880E-1,-2.392477840E-1,6.340477943E0,4.900394440E0
6.740031250E-1,-4.984153509E-1,6.270117283E0,5.234395504E0
6.760031250E-1,-8.291886449E-1,6.226562023E0,5.486916542E0
6.780031250E-1,-1.192772150E0,6.199785233E0,5.583556175E0
6.800031250E-1,-1.510588050E0,6.177605629E0,5.482367516E0
