"Time (s)","Acceleration x (m/s^2)","Acceleration y (m/s^2)","Acceleration z (m/s^2)"
0.000000000E0,2.658705950E0,-7.163592815E0,-3.890753984E0
2.508698000E-3,2.491020918E0,-7.589992046E0,-2.693003893E0
1.002906200E-2,2.467066050E0,-7.748095036E0,-2.606765985E0
1.253776000E-2,2.371246099E0,-7.752885818E0,-2.486990929E0
1.504817700E-2,2.304172039E0,-7.748095036E0,-2.472618103E0
1.755854100E-2,2.265844107E0,-7.843914986E0,-2.491781950E0
2.006723900E-2,2.237097979E0,-7.891825199E0,-2.544482946E0
2.257593700E-2,2.222724915E0,-7.934944153E0,-2.649884939E0
2.508463500E-2,2.232306957E0,-7.978063107E0,-2.774451017E0
2.759338500E-2,2.285007954E0,-8.006809235E0,-2.870270967E0
3.010208300E-2,2.308963060E0,-8.083464622E0,-3.004419088E0
3.261078100E-2,2.323335886E0,-8.140956879E0,-3.095448017E0
3.511947900E-2,2.361664057E0,-8.160120964E0,-3.186476946E0
3.762822900E-2,2.419156075E0,-8.198449135E0,-3.186476946E0
4.013692700E-2,2.481439114E0,-8.174493790E0,-3.248759985E0
4.264567700E-2,2.543721914E0,-8.203240395E0,-3.239177942E0
4.515437500E-2,2.606004953E0,-8.251150131E0,-3.239177942E0
4.789468700E-2,2.677870035E0,-8.203240395E0,-3.224805117E0
5.040338500E-2,2.735362053E0,-8.203240395E0,-3.200850010E0
5.291213500E-2,2.768898964E0,-8.160120964E0,-3.167313099E0
5.542083300E-2,2.927001953E0,-8.174493790E0,-3.124193907E0
5.792953100E-2,3.013240099E0,-8.169702530E0,-3.138566971E0
6.043822900E-2,3.118642092E0,-8.169702530E0,-3.052329063E0
6.294697900E-2,3.200088978E0,-8.174493790E0,-3.018791914E0
6.545567700E-2,3.286326885E0,-8.164912224E0,-2.961299896E0
6.796442700E-2,3.425266027E0,-8.169702530E0,-2.932554007E0
7.047312500E-2,3.506712914E0,-8.174493790E0,-2.870270967E0
7.298182300E-2,3.588160038E0,-8.169702530E0,-2.870270967E0
7.549052100E-2,3.683979988E0,-8.126584053E0,-2.807987928E0
7.817973900E-2,3.722307920E0,-8.174493790E0,-2.721750021E0
8.068843700E-2,3.813337088E0,-8.150539398E0,-2.683422089E0
8.319713500E-2,3.846873999E0,-8.136165619E0,-2.707376957E0
8.570588500E-2,3.861247063E0,-8.164912224E0,-2.645093918E0
8.821458300E-2,3.875619888E0,-8.121792793E0,-2.640302896E0
9.072328100E-2,3.904366016E0,-8.073883057E0,-2.592392921E0
9.323203100E-2,3.894783974E0,-8.059510231E0,-2.539691925E0
9.574072900E-2,3.866038084E0,-8.002017975E0,-2.611557007E0
9.824942700E-2,3.851665020E0,-7.997227192E0,-2.501363993E0
1.007581770E-1,3.846873999E0,-7.939734936E0,-2.491781950E0
1.032669270E-1,3.837291956E0,-7.877451897E0,-2.520528078E0
1.057755730E-1,3.741472006E0,-7.843914986E0,-2.463036060E0
1.084685940E-1,3.727098942E0,-7.834332943E0,-2.463036060E0
1.109773440E-1,3.655234098E0,-7.805586815E0,-2.463036060E0
1.134859890E-1,3.602533102E0,-7.752885818E0,-2.496572971E0
1.159947390E-1,3.540250063E0,-7.724140167E0,-2.525319099E0
1.185034370E-1,3.463593960E0,-7.724140167E0,-2.554064989E0
1.210121350E-1,3.454011917E0,-7.695394039E0,-2.573229074E0
1.235208850E-1,3.367774010E0,-7.657065868E0,-2.654675961E0
1.260295830E-1,3.310281992E0,-7.628320217E0,-2.683422089E0
1.285382810E-1,3.305490971E0,-7.604364872E0,-2.760077953E0
1.310470310E-1,3.262372017E0,-7.594782829E0,-2.798405886E0
1.335557290E-1,3.161761045E0,-7.585200787E0,-2.875061989E0
1.360644270E-1,3.166552067E0,-7.561245918E0,-2.899017096E0
1.387951040E-1,3.123433113E0,-7.556455135E0,-2.932554007E0
1.413038540E-1,3.123433113E0,-7.566037178E0,-2.970881939E0
1.438125520E-1,3.051568031E0,-7.570827961E0,-3.066701889E0
1.463213020E-1,3.070732117E0,-7.489380836E0,-3.114612103E0
1.488300000E-1,3.094686985E0,-7.484590054E0,-3.119402885E0
1.513386980E-1,3.085104942E0,-7.494172096E0,-3.119402885E0
1.538473960E-1,3.142596960E0,-7.479798794E0,-3.172103882E0
1.563561460E-1,3.142596960E0,-7.475008011E0,-3.152940035E0
1.588648440E-1,3.204879999E0,-7.503754139E0,-3.176894903E0
1.613735410E-1,3.247998953E0,-7.518126965E0,-3.157731056E0
1.638822910E-1,3.228835106E0,-7.522918224E0,-3.152940035E0
1.663909890E-1,3.252789974E0,-7.542081833E0,-3.124193907E0
1.690511980E-1,3.262372017E0,-7.527709007E0,-3.128984928E0
1.715598960E-1,3.271954060E0,-7.570827961E0,-3.081074953E0
1.740685940E-1,3.281536102E0,-7.566037178E0,-3.057120085E0
1.765773440E-1,3.276745081E0,-7.609156132E0,-3.037955999E0
1.790860940E-1,3.262372017E0,-7.628320217E0,-3.004419088E0
1.815947390E-1,3.267163038E0,-7.618738174E0,-2.942136049E0
1.841034890E-1,3.276745081E0,-7.685811996E0,-2.918180943E0
1.866121870E-1,3.291117907E0,-7.724140167E0,-2.889435053E0
1.891208850E-1,3.252789974E0,-7.752885818E0,-2.851106882E0
1.916296350E-1,3.276745081E0,-7.776841164E0,-2.879853010E0
1.941383850E-1,3.267163038E0,-7.824750900E0,-2.870270967E0
1.966470310E-1,3.281536102E0,-7.877451897E0,-2.889435053E0
1.993415620E-1,3.291117907E0,-7.920570850E0,-2.822360992E0
2.018502600E-1,3.224044085E0,-7.958899021E0,-2.841525078E0
2.043589580E-1,3.176134109E0,-7.987645149E0,-2.812778950E0
2.068677080E-1,3.147387981E0,-8.002017975E0,-2.803196907E0
2.093764060E-1,3.109060049E0,-8.049927711E0,-2.836734056E0
2.118851040E-1,3.089895964E0,-8.083464622E0,-2.831943035E0
2.143938540E-1,3.051568031E0,-8.083464622E0,-2.827152014E0
2.169025520E-1,2.989284992E0,-8.097838402E0,-2.894226074E0
2.194112500E-1,2.898256063E0,-8.107419968E0,-2.899017096E0
2.219200000E-1,2.845555067E0,-8.102628708E0,-2.899017096E0
2.244286980E-1,2.802436113E0,-8.117001534E0,-2.918180943E0
2.269373960E-1,2.749735117E0,-8.040346146E0,-2.990046024E0
2.296661980E-1,2.716197968E0,-8.025973320E0,-3.014000893E0
2.321749480E-1,2.673079014E0,-7.949316978E0,-2.990046024E0
2.346836460E-1,2.625169039E0,-7.872661114E0,-3.004419088E0
2.371923440E-1,2.591631889E0,-7.824750900E0,-2.999628067E0
2.397010940E-1,2.486229897E0,-7.700184822E0,-3.009210110E0
2.422097910E-1,2.500602961E0,-7.637901783E0,-3.057120085E0
2.447185410E-1,2.514976025E0,-7.570827961E0,-3.071492910E0
2.472272390E-1,2.562886000E0,-7.522918224E0,-3.128984928E0
2.497359890E-1,2.625169039E0,-7.460635185E0,-3.172103882E0
2.522446350E-1,2.682661057E0,-7.427097797E0,-3.172103882E0
2.547533850E-1,2.754525900E0,-7.431889057E0,-3.200850010E0
2.572620830E-1,2.922210932E0,-7.475008011E0,-3.239177942E0
2.599242710E-1,3.051568031E0,-7.460635185E0,-3.263133049E0
2.624329690E-1,3.233625889E0,-7.503754139E0,-3.306252003E0
2.649416660E-1,3.391729116E0,-7.532499790E0,-3.330207109E0
2.674504160E-1,3.549832106E0,-7.532499790E0,-3.291878939E0
2.699591660E-1,3.683979988E0,-7.585200787E0,-3.277506113E0
2.724678120E-1,3.798964024E0,-7.647483826E0,-3.296669960E0
2.749765620E-1,3.889992952E0,-7.719348907E0,-3.282296896E0
2.774852600E-1,4.014558792E0,-7.791213989E0,-3.224805117E0
2.799939580E-1,4.124752045E0,-7.853497028E0,-3.224805117E0
2.825027080E-1,4.210989952E0,-7.944526196E0,-3.152940035E0
2.850114060E-1,4.292437077E0,-7.997227192E0,-3.100239038E0
2.875201040E-1,4.316391945E0,-8.097838402E0,-3.052329063E0
2.902134370E-1,4.426585197E0,-8.193657875E0,-2.980463982E0
2.927221350E-1,4.488868237E0,-8.370924950E0,-2.894226074E0
2.952308330E-1,4.512823105E0,-8.514655113E0,-2.831943035E0
2.977395830E-1,4.565524101E0,-8.591311455E0,-2.716959000E0
3.002482810E-1,4.536777973E0,-8.754204750E0,-2.601974964E0
3.027569790E-1,4.541569233E0,-8.926680565E0,-2.496572971E0
3.052657290E-1,4.479286194E0,-9.022500992E0,-2.463036060E0
3.077744270E-1,4.364302158E0,-9.084783554E0,-2.419917107E0
3.102831770E-1,4.230154037E0,-9.199768066E0,-2.309724092E0
3.127918750E-1,4.048096180E0,-9.281214714E0,-2.242650032E0
3.153006250E-1,3.866038084E0,-9.333915710E0,-2.228276968E0
3.178092710E-1,3.631278992E0,-9.381826401E0,-2.228276968E0
3.205064580E-1,3.449220896E0,-9.400989532E0,-2.223485947E0
3.230151560E-1,3.295908928E0,-9.434527397E0,-2.223485947E0
3.255238540E-1,3.080313921E0,-9.477645874E0,-2.280977964E0
3.280326040E-1,2.879091978E0,-9.496809959E0,-2.237859011E0
3.305413020E-1,2.697033882E0,-9.539929390E0,-2.280977964E0
3.330500000E-1,2.572468042E0,-9.635748863E0,-2.372006893E0
3.355587500E-1,2.414365053E0,-9.654912949E0,-2.439080954E0
3.380674480E-1,2.342499971E0,-9.736359596E0,-2.496572971E0
3.405761460E-1,2.280216932E0,-9.803434372E0,-2.573229074E0
3.430848960E-1,2.227515936E0,-9.836971283E0,-2.688213110E0
3.455936460E-1,2.203561068E0,-9.904045105E0,-2.803196907E0
3.481022910E-1,2.165232897E0,-9.980701447E0,-3.004419088E0
3.508076040E-1,2.150860071E0,-1.006214809E1,-3.133775949E0
3.533163020E-1,2.165232897E0,-1.013401318E1,-3.220014095E0
3.558250000E-1,2.136487007E0,-1.022504234E1,-3.354161978E0
3.583337500E-1,2.112531900E0,-1.028253365E1,-3.497891903E0
3.608424480E-1,2.059830904E0,-1.032086182E1,-3.560174942E0
3.633511460E-1,1.916100979E0,-1.036877155E1,-3.617666960E0
3.658598960E-1,1.729251981E0,-1.037835407E1,-3.603293896E0
3.683685940E-1,1.484910965E0,-1.030169773E1,-3.617666960E0
3.708773440E-1,1.278898001E0,-1.023462391E1,-3.632040024E0
3.733860410E-1,9.099910259E-1,-1.006693935E1,-3.593712091E0
3.758947390E-1,5.985760093E-1,-9.899253845E0,-3.560174942E0
3.784034370E-1,2.679969966E-1,-9.688449860E0,-3.564965963E0
3.810869270E-1,-6.258200109E-2,-9.506391525E0,-3.521847010E0
3.835956250E-1,-3.452509940E-1,-9.319542885E0,-3.459563971E0
3.861043750E-1,-5.848010182E-1,-9.161439896E0,-3.378117085E0
3.886130730E-1,-8.339329958E-1,-8.955427170E0,-3.301460981E0
3.911218230E-1,-1.063900948E0,-8.869189262E0,-3.248759985E0
3.936304690E-1,-1.178884983E0,-8.739831924E0,-3.100239038E0
3.961392190E-1,-1.202839971E0,-8.677549362E0,-3.028373957E0
3.986479160E-1,-1.289077997E0,-8.658385277E0,-2.922971964E0
4.011566660E-1,-1.250749946E0,-8.639221191E0,-2.721750021E0
4.036653640E-1,-1.135766029E0,-8.715876579E0,-2.539691925E0
4.061740620E-1,-8.962159753E-1,-8.835652351E0,-2.271395922E0
4.086827600E-1,-6.375020146E-1,-8.950635910E0,-1.964771986E0
4.113716660E-1,-4.506529868E-1,-9.151858330E0,-1.696475983E0
4.138804160E-1,-2.781769931E-1,-9.324334145E0,-1.370687962E0
4.163891140E-1,-9.132800251E-2,-9.477645874E0,-8.676329851E-1
4.188978120E-1,6.198399886E-2,-9.721986771E0,-2.064750046E-1
4.214065620E-1,1.865500063E-1,-9.928000450E0,3.780269921E-1
4.239152600E-1,3.063249886E-1,-1.009568501E1,9.098280072E-1
4.264239580E-1,3.973540068E-1,-1.035439873E1,1.432047009E0
4.289327080E-1,4.404729903E-1,-1.056041241E1,1.815327048E0
4.314414060E-1,5.171290040E-1,-1.073288822E1,2.222562075E0
4.339501040E-1,6.512770057E-1,-1.092931938E1,2.519603968E0
4.364588540E-1,8.237529993E-1,-1.111137676E1,2.625005960E0
4.389676040E-1,1.010601997E0,-1.131259918E1,2.625005960E0
4.417030210E-1,1.221405983E0,-1.140841866E1,2.476485014E0
4.442117710E-1,1.350762963E0,-1.152819443E1,2.304008961E0
4.467204690E-1,1.398673058E0,-1.145632935E1,1.906355977E0
4.492291660E-1,1.393882036E0,-1.145153809E1,1.412883043E0
4.517379160E-1,1.446583033E0,-1.146111965E1,9.912750125E-1
4.542466140E-1,1.484910965E0,-1.134134483E1,5.792490244E-1
4.567553120E-1,1.446583033E0,-1.124073410E1,6.661199778E-2
4.592640620E-1,1.494493008E0,-1.124552536E1,-2.639670074E-1
4.617727600E-1,1.537611961E0,-1.125510693E1,-5.466359854E-1
4.642814580E-1,1.513656974E0,-1.120719719E1,-8.628420234E-1
4.667902080E-1,1.494493008E0,-1.114970493E1,-1.150302052E0
4.692989060E-1,1.365136027E0,-1.102993011E1,-1.456925988E0
4.719809890E-1,1.197450995E0,-1.098202038E1,-1.667729974E0
4.744897390E-1,1.039348006E0,-1.074726105E1,-1.768340945E0
4.769984370E-1,7.518879771E-1,-1.048854733E1,-1.902488947E0
4.795071350E-1,4.260999858E-1,-1.013401318E1,-1.902488947E0
4.820158850E-1,2.248779982E-1,-9.678868294E0,-1.883324981E0
4.845245830E-1,-1.440290064E-1,-9.204559326E0,-1.969563007E0
4.870332810E-1,-4.314889908E-1,-8.735040665E0,-2.103710890E0
4.895420310E-1,-6.422929764E-1,-8.370924950E0,-2.386379957E0
4.920507290E-1,-8.914250135E-1,-8.073883057E0,-2.841525078E0
4.945594270E-1,-1.049528003E0,-7.872661114E0,-3.277506113E0
4.970681770E-1,-9.968270063E-1,-7.719348907E0,-3.770978928E0
4.995768750E-1,-9.584990144E-1,-7.537291050E0,-4.345899105E0
5.022853640E-1,-8.003960252E-1,-7.436679840E0,-4.662105083E0
5.047941140E-1,-4.362800121E-1,-7.130055904E0,-4.700432777E0
5.073028120E-1,-6.039649844E-1,-6.890505791E0,-4.642940998E0
5.098115100E-1,-9.920359850E-1,-6.833014011E0,-4.872909069E0
5.123202600E-1,-1.394479990E0,-6.713239193E0,-5.342426777E0
5.148289580E-1,-1.590911031E0,-6.617418766E0,-5.610723019E0
5.173376560E-1,-1.610074997E0,-6.627000809E0,-5.826317787E0
5.198464060E-1,-1.749014020E0,-6.579091072E0,-5.926928997E0
5.223551040E-1,-2.089174986E0,-6.512016773E0,-6.343746185E0
5.248638020E-1,-2.347888947E0,-6.603045940E0,-6.956994057E0
5.273725520E-1,-2.467664003E0,-6.761148930E0,-7.704390049E0
5.298812500E-1,-2.429336071E0,-6.856968880E0,-8.571560860E0
5.325774480E-1,-2.419754028E0,-6.909669876E0,-9.275837898E0
5.350893230E-1,-2.510782957E0,-7.000699043E0,-9.673490524E0
5.376011980E-1,-2.635349035E0,-7.101309776E0,-9.783683777E0
5.401130730E-1,-2.750333071E0,-7.216293812E0,-9.917832375E0
5.426249480E-1,-2.922808886E0,-7.283368111E0,-9.941786766E0
5.451367710E-1,-2.961137056E0,-7.475008011E0,-9.778893471E0
5.476486980E-1,-2.860526085E0,-7.681021214E0,-9.515387535E0
5.501605730E-1,-2.755124092E0,-7.867869854E0,-9.141690254E0
5.526723960E-1,-2.587439060E0,-8.160120964E0,-8.509278297E0
5.551842710E-1,-2.371844053E0,-8.394880295E0,-7.699598789E0
5.576961460E-1,-2.223323107E0,-8.624848366E0,-6.731816769E0
5.602080210E-1,-1.955026984E0,-8.864398003E0,-5.792780876E0
5.628654160E-1,-1.624447942E0,-9.113530159E0,-4.762715816E0
5.653772910E-1,-1.222004056E0,-9.319542885E0,-3.665576935E0
5.678891660E-1,-8.051869869E-1,-9.472854614E0,-2.534900904E0
5.704009890E-1,-4.410710037E-1,-9.597420692E0,-1.394642949E0
5.729129160E-1,-8.174599707E-2,-9.731569290E0,-6.041280031E-1
5.754247910E-1,2.632060051E-1,-9.803434372E0,-1.106550023E-1
5.779366660E-1,5.602480173E-1,-9.904045105E0,1.528500021E-1
5.804485410E-1,9.052000046E-1,-9.875299454E0,4.744800180E-2
5.829603640E-1,1.135167956E0,-9.803434372E0,-2.975040078E-1
5.854722390E-1,1.283689022E0,-9.712405205E0,-7.670220137E-1
5.879841140E-1,1.307644010E0,-9.549510956E0,-1.289240956E0
5.904959890E-1,1.413046002E0,-9.396199226E0,-1.821041942E0
5.931536980E-1,1.465746999E0,-9.238096237E0,-2.314515114E0
5.956655730E-1,1.465746999E0,-9.113530159E0,-2.673840046E0
5.981774480E-1,1.441792011E0,-8.984172821E0,-2.817569971E0
6.006893230E-1,1.623849988E0,-8.921890259E0,-2.899017096E0
6.032011980E-1,1.839444995E0,-8.921890259E0,-2.865479946E0
6.057130730E-1,1.968801975E0,-8.859606743E0,-2.616348028E0
6.082249480E-1,2.088577032E0,-8.917098999E0,-2.367216110E0
6.107367710E-1,2.261053085E0,-8.960218430E0,-2.036637068E0
6.132486460E-1,2.414365053E0,-8.993755341E0,-1.634192944E0
6.157605210E-1,2.510185003E0,-9.137484550E0,-1.351523995E0
6.182723960E-1,2.629960060E0,-9.156648636E0,-1.135928988E0
6.207842710E-1,2.759316921E0,-9.180603981E0,-9.442890286E-1
6.234245830E-1,2.874300957E0,-9.233304977E0,-8.388869762E-1
6.259364580E-1,3.085104942E0,-9.199768066E0,-7.334849834E-1
6.284483330E-1,3.123433113E0,-9.142275810E0,-7.622309923E-1
6.309602080E-1,3.200088978E0,-9.118321419E0,-7.957680225E-1
6.334720830E-1,3.281536102E0,-9.051246643E0,-8.724240065E-1
6.359839580E-1,3.300699949E0,-9.051246643E0,-9.921990037E-1
6.384958330E-1,3.386938095E0,-9.008128166E0,-1.092810035E0
6.410077080E-1,3.410892963E0,-8.960218430E0,-1.183838964E0
6.435195830E-1,3.415683985E0,-8.921890259E0,-1.226958036E0
6.460314580E-1,3.406101942E0,-8.926680565E0,-1.284450054E0
6.485433330E-1,3.396519899E0,-8.845233917E0,-1.313195944E0
6.510551560E-1,3.310281992E0,-8.701503754E0,-1.289240956E0
6.537372390E-1,3.209671021E0,-8.591311455E0,-1.351523995E0
6.562491140E-1,3.061150074E0,-8.490699768E0,-1.418598056E0
6.587609890E-1,2.960539103E0,-8.390089035E0,-1.543164015E0
6.612728640E-1,2.840764046E0,-8.260731697E0,-1.662938952E0
6.637847390E-1,2.687452078E0,-8.150539398E0,-1.864161015E0
6.662965620E-1,2.572468042E0,-8.054718971E0,-2.017472982E0
6.688084890E-1,2.519767046E0,-7.968481064E0,-2.257023096E0
6.713203640E-1,2.399991989E0,-7.853497028E0,-2.496572971E0
6.738321870E-1,2.275425911E0,-7.791213989E0,-2.678631067E0
6.763440620E-1,2.155651093E0,-7.704976082E0,-2.807987928E0
6.788559370E-1,1.973592997E0,-7.537291050E0,-3.014000893E0
6.813678120E-1,1.791535020E0,-7.431889057E0,-3.109821081E0
6.839969270E-1,1.681342006E0,-7.340859890E0,-3.167313099E0
6.865088020E-1,1.489701986E0,-7.292950153E0,-3.162522078E0
6.890206770E-1,1.360345006E0,-7.197130203E0,-3.267924070E0
6.915325520E-1,1.221405983E0,-7.120473862E0,-3.210432053E0
6.940444270E-1,1.087257981E0,-7.062982082E0,-3.148149014E0
6.965563020E-1,1.005810976E0,-7.015071869E0,-3.157731056E0
6.990681770E-1,9.626920223E-1,-7.034235954E0,-3.138566971E0
7.015800520E-1,8.429170251E-1,-6.995907784E0,-3.105030060E0
7.040919270E-1,6.464859843E-1,-6.976744175E0,-2.999628067E0
7.066038020E-1,5.937849879E-1,-6.952788830E0,-2.999628067E0
7.091156770E-1,4.788010120E-1,-6.938416004E0,-3.004419088E0
7.116275520E-1,4.308910072E-1,-6.962370872E0,-2.937345028E0
7.142857810E-1,3.973540068E-1,-7.024653912E0,-2.956509113E0
7.167976560E-1,3.206979930E-1,-7.096518993E0,-2.942136049E0
7.193095310E-1,3.398619890E-1,-7.163592815E0,-2.932554007E0
7.218214060E-1,3.686079979E-1,-7.240249157E0,-2.865479946E0
7.243332810E-1,4.596369863E-1,-7.331277847E0,-2.774451017E0
7.268451560E-1,5.410839915E-1,-7.336069107E0,-2.779242039E0
7.293570310E-1,6.225309968E-1,-7.441471100E0,-2.755286932E0
7.318689060E-1,7.231420279E-1,-7.551663876E0,-2.635512114E0
7.343807810E-1,7.566789985E-1,-7.690602779E0,-2.573229074E0
7.368926560E-1,7.758430243E-1,-7.829542160E0,-2.573229074E0
7.394045310E-1,8.189619780E-1,-7.997227192E0,-2.405544043E0
7.419163540E-1,7.997980118E-1,-8.073883057E0,-2.271395922E0
7.445751040E-1,7.231420279E-1,-8.155329704E0,-2.252232075E0
7.470869790E-1,6.896049976E-1,-8.346969604E0,-2.094129086E0
7.495988540E-1,7.423059940E-1,-8.471535683E0,-2.051009893E0
7.521107290E-1,7.950069904E-1,-8.490699768E0,-2.036637068E0
7.546226040E-1,8.333349824E-1,-8.615265846E0,-1.993517995E0
7.571344790E-1,8.285440207E-1,-8.696713448E0,-1.983935952E0
7.596463540E-1,8.237529993E-1,-8.720667839E0,-2.031846046E0
7.621582290E-1,8.237529993E-1,-8.701503754E0,-2.070173979E0
7.646701040E-1,7.662609816E-1,-8.667966843E0,-2.098920107E0
7.671819790E-1,7.375149727E-1,-8.653594017E0,-2.165993929E0
7.696938540E-1,7.183510065E-1,-8.605684280E0,-2.228276968E0
7.722057290E-1,6.848139763E-1,-8.552983284E0,-2.209112883E0
7.748680730E-1,6.416950226E-1,-8.457162857E0,-2.247441053E0
7.773799480E-1,5.650389791E-1,-8.356552124E0,-2.324096918E0
7.798918230E-1,4.788010120E-1,-8.164912224E0,-2.300142050E0
7.824036980E-1,4.069359899E-1,-8.025973320E0,-2.309724092E0
7.849155730E-1,3.829810023E-1,-7.858287811E0,-2.391170979E0
7.874274480E-1,2.919520140E-1,-7.704976082E0,-2.348052025E0
7.899393230E-1,2.488330007E-1,-7.570827961E0,-2.372006893E0
7.924511980E-1,1.673859954E-1,-7.417516232E0,-2.482199907E0
7.949630730E-1,1.721770018E-1,-7.292950153E0,-2.482199907E0
7.974749480E-1,1.578039974E-1,-7.158802032E0,-2.549273968E0
7.999868230E-1,1.194759980E-1,-7.062982082E0,-2.592392921E0
8.024986980E-1,1.003120020E-1,-6.933625221E0,-2.645093918E0
8.051559370E-1,1.886500046E-2,-6.880924225E0,-2.721750021E0
8.076678120E-1,4.281999916E-2,-6.789895058E0,-2.788824081E0
8.101796870E-1,3.323800117E-2,-6.746776104E0,-2.836734056E0
8.126915620E-1,1.886500046E-2,-6.689283848E0,-2.860688925E0
8.152034370E-1,-2.904500067E-2,-6.713239193E0,-2.927762985E0
8.177153120E-1,-9.132800251E-2,-6.689283848E0,-3.009210110E0
8.202271870E-1,-6.737300009E-2,-6.674911022E0,-3.081074953E0
8.227390620E-1,-1.248650029E-1,-6.665328979E0,-3.119402885E0
8.252509370E-1,-1.775660068E-1,-6.703657150E0,-3.138566971E0
8.277628120E-1,-1.775660068E-1,-6.751566887E0,-3.220014095E0
8.302746870E-1,-2.302670032E-1,-6.909669876E0,-3.282296896E0
8.327865620E-1,-2.973409891E-1,-6.976744175E0,-3.373326063E0
8.354493750E-1,-3.404600024E-1,-7.106101036E0,-3.454772949E0
8.379612500E-1,-3.452509940E-1,-7.221085072E0,-3.593712091E0
8.404731250E-1,-3.596239984E-1,-7.383978844E0,-3.660785913E0
8.429850000E-1,-3.644149899E-1,-7.532499790E0,-3.727859974E0
8.454968750E-1,-4.171159863E-1,-7.647483826E0,-3.814097881E0
