,Time (s),Acceleration x (m/s^2),Acceleration y (m/s^2),Acceleration z (m/s^2)
18136,92.013,-4.879383087,-6.038176537000001,3.4165258410000003
18137,92.018982,-4.367023945,-6.349422932,5.214571476000001
18138,92.023986,-4.254496574,-6.536170482999999,6.375759125
18139,92.028991,-5.532999992000001,-8.698134422,25.63711166
18140,92.033996,-9.066842079,-25.5820446,32.25468445
18141,92.039001,-1.2210428709999999,-8.418013573,7.709329605
18142,92.044006,-0.06224924326,-0.3543418646,3.818751812
18143,92.049011,-1.9033904080000001,-0.11971008779999999,7.304709435
18144,92.054016,-2.588132143,0.787692368,8.255207062
18145,92.05896,-1.893813491,4.357447147,4.594472885
18146,92.063964,-4.27125597,3.256114244,-1.922544003
18147,92.068969,-8.860940933,-4.6806645389999995,-4.156333923
18148,92.073974,-11.46104336,-9.246406555,-4.6255974769999995
18149,92.078979,-12.97417927,-11.55202293,-4.704606533
18150,92.083984,-13.51047993,-11.93030739,-3.6966474060000003
18151,92.088989,-13.95101357,-12.09790134,-4.0653543469999995
18152,92.093994,-13.58230591,-12.08353615,-3.303998232
18153,92.098999,-10.65898609,-10.89361763,1.6615760330000002
18154,92.104003,-8.997409821,-10.85052204,5.444414616
18155,92.109008,-6.993463039,-9.945513725,5.461174011000001
18156,92.114013,-5.446808815,-8.327033043,2.511517525
18157,92.119018,-5.178658485,-7.156269073,1.256955862
18158,92.123962,-5.767632008,-6.713341712999999,1.67115283
18159,92.128967,-6.071695328,-6.301538944,1.78128612
18160,92.133972,-5.908889771,-5.899312973,2.485181332
18161,92.138976,-5.712565422000001,-5.664681435,2.944868088
18162,92.143981,-5.374982834,-5.595249176,3.23456645
18163,92.148986,-5.039794445,-5.741295815,3.315969467
18164,92.154968,-4.525041103,-5.973533154,2.980781078
18165,92.159972,-4.57531929,-6.16506958,2.8826189039999996
18166,92.164977,-5.762843609,-6.449979305,3.0885202880000002
18167,92.169982,-6.126761912999999,-6.10042572,3.758896589
18168,92.174987,-4.532223701,-4.960785866,3.258508444
18169,92.179992,-3.282450438,-4.137180328,3.574543238
18170,92.184997,-3.378218651,-4.108449936,4.299986362
18171,92.190002,-3.483563423,-3.763684988,5.650316237999999
18172,92.195007,-3.983951569,-3.1818940639999997,6.136339187999999
18173,92.200011,-5.884947777000001,-3.299209833,8.097189903
18174,92.205016,-10.61828423,-5.650316237999999,10.08916569
18175,92.20996,-12.41872406,-8.46589756,9.612719536
18176,92.214965,-12.16493893,-10.04846478,8.147468567
18177,92.221007,-11.04924107,-8.801085472,6.402095318
18178,92.226989,-9.165003777,-7.3118920329999995,4.862623692
18179,92.231994,-7.5944075579999994,-6.258443356,4.029441357
18180,92.236999,-6.87854147,-5.83466959,3.545812607
18181,92.241942,-6.775590897000001,-6.033388137999999,3.2752678389999996
18182,92.246947,-6.883329868,-6.071695328,3.2752678389999996
18183,92.25299,-7.000645638,-5.094861031000001,2.868253708
18184,92.257995,-8.202534676,-5.032611847,1.493981838
18185,92.263,-8.911218643,-5.3294930460000005,0.2082955539
18186,92.268004,-8.860940933,-5.367800236,-1.086967587
18187,92.273009,-10.15859795,-5.851428986,-4.295197964
18188,92.278014,-12.5599823,-6.749254704,-8.257601738
18189,92.282958,-11.39161205,-6.7875618929999995,-8.480262756
18190,92.287963,-9.63666153,-6.35421133,-6.31829834
18191,92.292968,-9.028534889,-5.781997204,-4.929661274
18192,92.29779,-8.415618896,-4.371812343999999,-4.546588898
18193,92.302977,-6.91684866,-3.069366693,-3.8929719919999997
18194,92.308959,-6.20337677,-2.523488522,-2.310404539
18195,92.313964,-6.945579052,-3.4141316410000004,-1.675941229
18196,92.318969,-7.663839817,-4.771644115,-1.091755986
18197,92.323974,-7.69017601,-5.475539207000001,-0.9624691009999999
18198,92.328978,-6.179434776,-5.604825974,-0.7230489254000001
18199,92.333983,-4.546588898,-6.212953568,0.1364694983
18200,92.338988,-3.3063924310000004,-6.998251438,1.632845521
18201,92.34497,-2.45166254,-7.730877399,3.869029999
18202,92.349974,-3.16034627,-8.152256966,5.23611927
18203,92.354979,-5.078101635,-8.748413086000001,6.045359135
18204,92.359984,-5.475539207000001,-6.79953289,6.136339187999999
18205,92.364806,-5.94959116,-5.319916248,5.997475147
18206,92.369994,-6.054935932,-4.690241337,5.9184665679999995
18207,92.374999,-6.382941722999999,-4.141968727,4.786009312
18208,92.380004,-6.629544735,-4.364629745,3.933673382
18209,92.385009,-6.703764915,-4.508281708,3.3016040330000003
18210,92.390013,-6.607996464,-3.837905407,2.406172752
18211,92.395018,-6.172252178,-3.5027170180000002,1.884236693
18212,92.399962,-5.935225964,-4.161122322,1.398213744
18213,92.404845,-5.884947777000001,-5.310339451,1.017535686
18214,92.409972,-6.0788779260000005,-6.157886982000001,0.7398083209999999
18215,92.414977,-6.375759125,-6.746860504,0.7493851184999999
18216,92.420958,-7.10599041,-7.309497832999999,1.211466074
18217,92.425963,-7.264008045,-7.1754226679999995,1.8579005
18218,92.430968,-6.449979305,-7.292738438,2.363077164
18219,92.435973,-4.089296341,-8.418013573,1.991975784
18220,92.440978,-2.511517525,-9.239224434,1.249773264
18221,92.445982,-1.436521053,-9.895236015,1.30005157
18222,92.450987,-1.683123827,-9.789890289,2.346317768
18223,92.455992,-3.428496838,-7.433996201,1.5442601440000001
18224,92.460997,-3.708618402,-6.5026516910000005,-1.8171991109999999
18225,92.466002,-4.204218388,-7.089231014,-1.9177556040000001
18226,92.470948,-4.620809078,-8.147468567,-1.276109457
18227,92.476014,-4.742913723,-9.277531624,0.1651999205
18228,92.480958,-5.123591423,-10.16817474,2.5426421169999998
18229,92.485963,-5.420472622,-10.0604353,4.007893562
18230,92.490785,-6.902483462999999,-10.38844109,4.699818134
18231,92.49579,-7.158663272999999,-10.32858658,4.824316502
18232,92.500978,-7.929595947,-9.536105156,4.8841714860000005
18233,92.505982,-8.858546257,-8.329427719,4.254496574
18234,92.510987,-8.834604263,-8.157045364,2.851494312
18235,92.515992,-8.908824921,-9.064447402999999,0.9768342972
18236,92.520997,-8.192957878,-9.603142737999999,-0.8619126081
18237,92.526002,-7.65426302,-10.12029076,-2.262520552
18238,92.531983,-6.861782074,-11.06121159,-2.015917778
18239,92.536988,-6.710947514,-11.92312431,-2.013523579
18240,92.54181,-8.461109161,-13.26866627,-1.908178806
18241,92.546998,-9.0740242,-13.46738434,-2.487575531
18242,92.552003,-9.617507935,-13.50329781,-3.1172506810000002
18243,92.557008,-9.045293808,-12.89756489,-2.901772499
18244,92.562013,-7.378929615,-11.54005241,-2.667140722
18245,92.567017,-6.040570736,-10.47942066,-1.771709204
18246,92.5719,-5.176264286,-9.902418137,-0.7086837292
18247,92.576966,-4.75488472,-9.619902611,0.4022258818
18248,92.581971,-4.845864296,-9.670180321,1.41257906
18249,92.586915,-4.987122059,-9.555258751,1.604115129
18250,92.59192,-5.4300494189999995,-9.526528358,1.651999116
18251,92.596986,-6.071695328,-9.655815125,1.194706678
18252,92.601991,-6.873753071,-9.943120002999999,0.7278373241
18253,92.606995,-7.618350029,-10.06282997,0.5961562395000001
18254,92.612,-8.068459511,-9.897629738,0.605733037
18255,92.617005,-7.9894509320000004,-9.54807663,0.7206547259999999
18256,92.62201,-7.127538681,-9.105149269,0.9457096456999999
18257,92.627015,-6.16506958,-8.846575737,1.434126854
18258,92.631959,-5.269638062,-8.537723541,1.6974890230000002
18259,92.636964,-4.783615112,-8.384494781,1.936909199
18260,92.641968,-4.472368717,-8.403648376,1.9249382019999999
18261,92.646973,-4.197035789,-8.406042099,2.080561161
18262,92.651978,-3.9432501789999996,-8.42759037,2.276885748
18263,92.656983,-4.13239193,-8.42759037,2.178723574
18264,92.661988,-4.601655483,-8.303091048999999,2.0757727619999997
18265,92.666993,-5.267243862,-8.140285492,2.274491549
18266,92.671998,-6.02620554,-7.967903137,2.2433669569999997
18267,92.677003,-6.974309444,-7.860164165,1.975216389
18268,92.682007,-8.042123795,-7.6997528079999995,1.589749932
18269,92.687989,-8.916007042,-7.381323814,1.1971008779999999
18270,92.692994,-9.18894577,-7.192182064,0.7996633648999999
18271,92.697999,-8.736441612,-6.624756336,0.390254885
18272,92.703003,-8.030152321000001,-6.110002518,0.5793967843
18273,92.708008,-6.052541732999999,-4.527435303,0.5147533417
18274,92.713013,-2.643198729,-2.0183119769999998,0.0143652102
18275,92.718018,-1.230619669,-1.304839969,-0.06943184882
18276,92.722962,-0.6344634295,-1.673547029,0.6823474765
18277,92.727906,-0.39504328369999997,-2.7509377,1.6974890230000002
18278,92.732972,-0.2202665508,-3.993528366,3.0166940689999997
18279,92.737976,-0.3112462163,-4.692635536,4.007893562
18280,92.742981,-0.7134721279,-4.9416322710000005,4.572925091
18281,92.747986,-1.1923124790000001,-5.039794445,4.3813891410000005
18282,92.752991,-1.7334020140000002,-5.066130638,4.146757126000001
18283,92.757996,-2.48996973,-5.075707436,4.556165695
18284,92.763001,-3.318363667,-5.245696068,4.1850647930000004
18285,92.768006,-4.012681961,-5.571307182000001,3.5314474110000003
18286,92.773011,-4.683058739,-5.935225964,2.8969841
18287,92.778015,-5.267243862,-6.215347767000001,2.300827742
18288,92.782959,-5.901707172,-6.4715271,1.9201498030000002
18289,92.789002,-6.002263546,-6.500257492,0.7805097699
18290,92.793885,-6.193799973,-6.7516489029999995,0.15562310810000002
18291,92.799011,-6.39491272,-6.950367451,-0.0359130241
18292,92.804016,-6.739677906,-7.302315235,0.07661445438999999
18293,92.80896,-6.902483462999999,-7.350199223,0.4453215301
18294,92.813965,-7.062894821,-7.338228226,0.7445967197
18295,92.81897,-7.323863029,-7.6782050129999995,1.113303781
18296,92.823975,-7.347805022999999,-7.833827972000001,1.098938584
18297,92.82898,-6.773196697,-7.299921036000001,1.074996591
18298,92.833985,-5.31512785,-6.167463779,0.806845963
18299,92.838989,-3.801992416,-4.328716755,0.4022258818
18300,92.843994,-2.6910827160000004,-3.335123062,-0.0718260482
18301,92.848999,-1.877054095,-3.043030262,-0.6272808313
18302,92.854004,-1.1971008779999999,-2.964021683,-1.2210428709999999
18303,92.859009,-0.6799532771,-3.129221678,-1.8315643069999998
18304,92.864014,-0.5554547906,-3.801992416,-2.2409727569999998
18305,92.869019,0.1364694983,-4.237737179,-1.357512355
18306,92.873962,1.173158884,-4.515464306,-0.004788403399
18307,92.878967,1.628057122,-4.75488472,1.850717902
18308,92.883972,1.687912226,-5.147533417,1.618480325
18309,92.888977,1.44849205,-6.586448669,-0.4141969085
18310,92.893982,0.806845963,-7.448361397,-0.2442085743
18311,92.898987,-0.23702596129999998,-8.762778282000001,0.215478152
18312,92.903992,-1.07739079,-10.6350441,0.5530605912
18313,92.908813,-2.003946781,-12.25352383,1.900996208
18314,92.914001,-2.5546131130000003,-14.82489681,2.7844564910000003
18315,92.919006,-2.624045134,-16.78814316,2.312798738
18316,92.924011,-2.45166254,-18.44971848,1.230619669
18317,92.928955,-2.391807556,-19.42894745,0.7062895298
18318,92.93396,-2.456450939,-19.76413536,-0.1029506698
18319,92.938965,-2.126051188,-18.73462868,-1.357512355
18320,92.94397,-1.850717902,-17.73385239,-1.975216389
18321,92.948791,-2.0207061769999997,-16.85518074,-1.699883223
18322,92.953979,-2.406172752,-16.19677544,-1.3455413580000002
18323,92.958984,-2.928108692,-14.97812557,-1.091755986
18324,92.963989,-3.41892004,-13.6014595,-0.47644615170000004
18325,92.968994,-4.757278919,-13.34288597,0.4094084799
18326,92.973999,-5.700594425,-13.38119316,0.27054479719999996
18327,92.979004,-6.533776283,-13.28303146,0.09337386489
18328,92.983886,-6.926425457000001,-12.8544693,0.8786720037000001
18329,92.98883,-7.048529625,-12.634202,0.2585737705
18330,92.993896,-7.048529625,-12.634202,0.2585737705
18331,92.998962,-6.9838862420000005,-12.53125191,-0.624886632
18332,92.998962,-2.30801034,-9.739612579,1.185129881
18333,93.003967,-2.30801034,-9.739612579,1.185129881
18334,93.008972,-2.30801034,-9.739612579,1.185129881
18335,93.013977,-2.30801034,-9.739612579,1.185129881
18336,93.018982,-2.585737944,3.7181952,8.865729332
18337,93.023987,-2.537853718,3.730166197,9.119514465
18338,93.028992,-2.480392933,3.7205893989999996,9.39484787
18339,93.033936,-2.45405674,3.744531393,9.552865028
18340,93.03894,-2.456450939,3.749319792,9.639056206000001
18341,93.043945,-2.504334927,3.7469255919999997,9.600749016
18342,93.04895,-2.590526342,3.782838583,9.452308655
18343,93.053955,-2.671929121,3.811569214,9.210494041
18344,93.05896,-2.7485435010000003,3.8618474010000003,8.927978516
18345,93.063965,-2.839523315,3.881000996,8.616731644
18346,93.06897,-2.863465309,3.9432501789999996,8.257601738
18347,93.074951,-2.834734917,3.9695863719999998,7.963114738
18348,93.080993,-2.700659513,4.01747036,7.754819392999999
18349,93.085937,-2.590526342,4.048594952,7.685387611
18350,93.090942,-2.501940727,4.060565948,7.637503624
18351,93.095947,-2.45166254,4.0438065530000005,7.649474621
18352,93.100952,-2.468421936,3.986345768,7.730877399
18353,93.105957,-2.49236393,3.9624037739999998,7.886500358999999
18354,93.110962,-2.49236393,3.904942989,8.03494072
18355,93.115967,-2.4420857430000003,3.8881835939999996,8.212111473
18356,93.120971,-2.372653961,3.909731388,8.365341187
18357,93.125976,-2.33913517,3.909731388,8.523358345
18358,93.130981,-2.401384354,3.8666357989999995,8.652645111
18359,93.135986,-2.456450939,3.847482204,8.6957407
18360,93.140991,-2.5210943219999997,3.7972037789999997,8.640673637
18361,93.145935,-2.576161146,3.763684988,8.501810074
18362,93.15094,-2.624045134,3.761290789,8.291120529
18363,93.155944,-2.681505919,3.7325603960000002,8.078036308
18364,93.161987,-2.741360903,3.75650239,7.730877399
18365,93.166992,-2.7772738930000003,3.806780815,7.371747017000001
18366,93.171936,-2.8275523189999996,3.8331170080000003,7.199364662000001
18367,93.176941,-2.863465309,3.852270603,7.115567684
18368,93.181945,-2.920926094,3.8402996060000003,7.1969704629999995
18369,93.18695,-2.93529129,3.8666357989999995,7.343016624
18370,93.192993,-2.920926094,3.8929719919999997,7.627926826
18371,93.197937,-2.8275523189999996,3.9480385780000002,7.850587367999999
18372,93.202941,-2.700659513,3.9695863719999998,8.042123795
18373,93.207946,-2.56658411,3.971980572,8.192957878
18374,93.212951,-2.4660277369999997,4.005499363,8.317456245
18375,93.217956,-2.430114746,3.993528366,8.398859977999999
18376,93.222961,-2.45166254,4.000710964,8.408436775
18377,93.227966,-2.456450939,4.000710964,8.293514252000001
18378,93.232971,-2.420537949,4.031835556,8.202534676
18379,93.237976,-2.264914751,4.074931145,8.037335396
18380,93.24298,-2.0183119769999998,4.048594952,7.824251175
18381,93.247985,-1.8626888990000001,3.9624037739999998,7.711723804
18382,93.25299,-1.766920805,3.8618474010000003,7.659051418
18383,93.257934,-1.740584612,3.782838583,7.694964409
18384,93.262939,-1.740584612,3.6846764089999997,7.735665797999999
18385,93.267944,-1.7932571169999998,3.622427225,7.7955207820000005
18386,93.272949,-1.893813491,3.56736064,7.802703381000001
18387,93.278991,-2.059013367,3.485957623,7.702147007000001
18388,93.283935,-2.288856745,3.34469986,7.467514992000001
18389,93.28894,-2.473210335,3.215412855,7.280767441
18390,93.293945,-2.616862535,3.107673883,7.151480675
18391,93.298949,-2.645592928,3.08133769,6.9695210460000006
18392,93.303954,-2.602497339,3.059789658,6.730101109
18393,93.308959,-2.511517525,3.12203908,6.466738701000001
18394,93.313964,-2.458845139,3.100491285,6.169857979
18395,93.318969,-2.571372509,3.038241863,5.94959116
18396,93.323974,-2.782062292,2.983175278,5.925649166
18397,93.328979,-3.019088268,2.954444885,5.940014362
18398,93.333984,-3.2393548489999997,2.9424738880000003,5.983109951
18399,93.338988,-3.4428620339999996,2.9113492969999997,6.02381134
18400,93.343993,-3.6631286139999997,2.9113492969999997,6.10042572
18401,93.348937,-3.900154591,2.86107111,6.174646377999999
18402,93.353942,-4.192247391,2.770091295,6.20337677
18403,93.358886,-4.311957359,2.765302896,6.160281181
18404,93.364989,-4.400542736,2.765302896,6.071695328
18405,93.369933,-4.450820923,2.71502471,5.98789835
18406,93.375976,-4.455609322,2.6647465230000003,5.770026207000001
18407,93.380919,-4.359841347,2.655169725,5.652710438
18408,93.385985,-4.369418144,2.707842112,5.930437565
18409,93.390929,-4.161122322,2.6216509340000003,5.549759387999999
18410,93.395934,-3.9384617810000004,2.4660277369999997,4.8314991
18411,93.400939,-3.7181952,2.327163935,4.249708176
18412,93.405944,-3.4668040280000003,2.272097349,4.189853191
18413,93.411986,-3.476380825,2.166752577,4.690241337
18414,93.416991,-3.8402996060000003,2.078166962,5.3007626530000005
18415,93.421935,-4.419696331,1.8890250919999998,5.3725886339999995
18416,93.42694,-5.116408825,1.63763392,5.640739441
18417,93.431762,-5.87297678,1.515529633,6.500257492
18418,93.43695,-6.059724331,1.5825673340000002,7.225700855
18419,93.441954,-5.937620162999999,1.742978811,8.037335396
18420,93.446959,-5.736507416,1.769315004,8.693346024
18421,93.451964,-5.54257679,1.6472107169999999,9.153033257
18422,93.456969,-5.327098846,1.515529633,9.469067574
18423,93.461974,-5.078101635,1.4269442559999999,9.605537415
18424,93.466979,-4.814739704,1.3862427469999998,9.564835548
18425,93.471984,-4.5106759069999995,1.470039845,9.033323288
18426,93.476928,-4.335899353,1.541865945,8.396465302000001
18427,93.481932,-4.278438568,1.644816518,7.771578788999999
18428,93.487975,-4.340687752,1.78128612,6.945579052
18429,93.49298,-4.477157116,1.910573006,6.256049156
18430,93.497985,-4.649539471000001,2.068590164,5.516240597
18431,93.502989,-4.783615112,2.264914751,4.90811348
18432,93.507933,-4.8314991,2.461239338,4.675876141
18433,93.512938,-4.814739704,2.6312277319999997,4.821922302
18434,93.517943,-4.671087742,2.700659513,5.193023682
18435,93.522948,-4.532223701,2.693476915,5.68383503
18436,93.527953,-4.584896088,2.6312277319999997,6.162675381000001
18437,93.532958,-4.766855716999999,2.564189911,6.663063526
18438,93.537963,-4.970362663,2.552218914,7.158663272999999
18439,93.542967,-5.078101635,2.590526342,7.76679039
18440,93.547972,-5.0062756539999995,2.6096799369999997,8.74601841
18441,93.552977,-4.90571928,2.616862535,9.562441826
18442,93.557982,-4.723760128,2.561795712,10.24478912
18443,93.562987,-4.393360138,2.513911724,10.75954247
18444,93.567992,-4.005499363,2.456450939,11.14500904
18445,93.572936,-3.677493811,2.341529369,11.56399441
18446,93.57794,-3.392583847,2.279279947,12.2607069
18447,93.582945,-3.277662039,2.166752577,12.86165142
18448,93.58795,-3.282450438,2.059013367,13.31894398
18449,93.592955,-3.38061285,1.939303398,13.62300777
18450,93.59796,-3.572149038,1.8650830980000002,13.86003399
18451,93.602965,-3.7253777980000002,1.8650830980000002,14.00607967
18452,93.608946,-3.90254879,1.939303398,14.05396366
18453,93.614989,-4.086902142,2.00873518,13.88397598
18454,93.619933,-4.283226967,2.027888775,13.54878712
18455,93.624937,-4.448426723,1.9823989869999998,12.96939087
18456,93.629942,-4.513070107,1.8698714969999999,12.44506073
18457,93.634947,-4.5106759069999995,1.8052281140000002,11.92073059
18458,93.639952,-4.4316673280000005,1.810016513,11.39640045
18459,93.644957,-4.170699596,1.838746905,10.87685871
18460,93.649962,-3.8594532010000004,1.8148049119999998,10.44350815
18461,93.654967,-3.5027170180000002,1.7621324059999999,10.16338634
18462,93.659972,-3.08373189,1.668758631,9.919178009
18463,93.664976,-2.8538885119999997,1.632845521,9.832986832000001
18464,93.669981,-2.8251581189999997,1.6639702319999998,9.806650162
18465,93.674986,-2.8371291160000003,1.769315004,9.768342972000001
18466,93.679991,-2.956839085,1.929726601,9.708487511
18467,93.684935,-3.1627404689999996,2.140416384,9.651026726
18468,93.690977,-3.423708439,2.296039343,9.552865028
18469,93.695982,-3.548206806,2.30561614,9.464279175
18470,93.700987,-3.488351822,2.260126352,9.366117477000001
18471,93.705992,-3.3087866310000003,2.1643583769999997,9.33020401
18472,93.710936,-3.095702887,2.04464817,9.409213066
18473,93.715941,-2.849100113,1.8890250919999998,9.555258751
18474,93.720945,-2.552218914,1.7022774219999999,9.763554573
18475,93.72595,-2.26730895,1.477222443,10.07958889
18476,93.730955,-2.0326771740000003,1.254561663,10.50815105
18477,93.73596,-1.980004787,1.017535686,10.83855152
18478,93.740965,-2.173935175,0.9289502501000001,11.04684639
18479,93.74597,-2.482787132,0.9361328483,11.17134476
