"Time (s)","X (rad/s)","Y (rad/s)","Z (rad/s)"
1.251899998E-2,-8.975951672E-1,-9.214644432E-1,-1.126896068E-1
2.253699998E-2,-1.031797409E0,-1.048378468E0,-4.617689177E-2
3.255599999E-2,-1.133456945E0,-1.177597284E0,7.416279987E-4
4.257399999E-2,-1.197669744E0,-1.223670483E0,2.130602486E-2
5.259300000E-2,-1.162400246E0,-1.112576127E0,3.824580088E-2
6.261100000E-2,-9.783291817E-1,-9.644684196E-1,8.579785936E-3
7.262999998E-2,-7.102401853E-1,-7.828959823E-1,-6.733865291E-2
8.264799998E-2,-4.211697578E-1,-5.930288434E-1,-1.536676884E-1
9.266699999E-2,-1.456577033E-1,-4.237900674E-1,-2.087984830E-1
1.026850000E-1,9.711926430E-2,-3.175669611E-1,-1.904130727E-1
1.127040000E-1,2.657321393E-1,-2.605707049E-1,-1.359153390E-1
1.227220000E-1,3.447092474E-1,-2.349005044E-1,-9.551226348E-2
1.327410000E-1,3.673864603E-1,-2.675604522E-1,-2.964818105E-2
1.427590000E-1,3.052178919E-1,-3.178910017E-1,1.693876088E-2
1.527780000E-1,1.739334762E-1,-3.955401182E-1,4.685737193E-2
1.627960000E-1,7.206015289E-3,-4.580056369E-1,4.054035246E-2
1.728150000E-1,-1.616618037E-1,-5.059602261E-1,-5.192267708E-3
1.828330000E-1,-3.385843933E-1,-5.254976749E-1,-7.384962589E-2
1.928510000E-1,-4.858849645E-1,-5.339300632E-1,-1.088531837E-1
2.028700000E-1,-5.960245132E-1,-5.293883085E-1,-1.093725041E-1
2.128880000E-1,-6.180076599E-1,-5.178906322E-1,-8.431595564E-2
2.229070000E-1,-6.120080948E-1,-5.336909294E-1,-7.765006274E-2
2.329250000E-1,-5.735484958E-1,-5.375257730E-1,-6.833557039E-2
2.429440000E-1,-5.304145813E-1,-5.232498646E-1,-5.006948486E-2
2.529620000E-1,-4.792183340E-1,-4.832071662E-1,-1.402816642E-2
2.629810000E-1,-4.182173014E-1,-4.033014178E-1,4.940507933E-4
2.729990000E-1,-3.334609270E-1,-3.416963518E-1,1.706416719E-2
2.830180000E-1,-2.530792654E-1,-2.530021667E-1,1.100201346E-2
2.930360000E-1,-1.796801537E-1,-1.611692607E-1,-1.582804136E-2
3.030550000E-1,-1.039723456E-1,-7.734066993E-2,-3.201340139E-2
3.130730000E-1,-2.542267181E-2,6.133024581E-3,-3.001069278E-2
3.230920000E-1,4.230444133E-2,7.101694494E-2,-3.836502880E-2
3.331100000E-1,1.003671065E-1,9.756228328E-2,-4.228318483E-2
3.431290000E-1,1.328957528E-1,1.280842423E-1,-3.976010531E-2
3.531470000E-1,1.332325786E-1,1.411772668E-1,-3.008489683E-2
3.631660000E-1,1.122008041E-1,9.188003093E-2,-9.036337025E-3
3.731840000E-1,6.741565466E-2,4.113643989E-2,1.668542624E-2
3.832030000E-1,2.690183464E-3,-1.225754619E-2,3.079964779E-2
3.932210000E-1,-5.762819946E-2,-9.549298882E-2,6.002875045E-2
4.032400000E-1,-1.158025563E-1,-1.799053401E-1,8.819114417E-2
4.132580000E-1,-1.990458220E-1,-2.798881829E-1,8.685284108E-2
4.232770000E-1,-3.172225058E-1,-3.969798982E-1,5.270951614E-2
4.332950000E-1,-4.737137258E-1,-5.446572900E-1,1.538704894E-2
4.433140000E-1,-6.593810916E-1,-6.672465801E-1,-3.480102122E-2
4.533320000E-1,-8.089872003E-1,-8.376663923E-1,-7.850152999E-2
4.633510000E-1,-9.519987106E-1,-9.444109201E-1,-8.637170494E-2
4.733690000E-1,-1.186943293E0,-1.305060744E0,-1.847034320E-3
4.833880000E-1,-1.388875127E0,-1.304771543E0,9.206588566E-2
4.934060000E-1,-1.528664827E0,-1.195214510E0,1.222125664E-1
5.034250000E-1,-1.535676837E0,-1.290162683E0,1.359345019E-1
5.134430000E-1,-1.425555110E0,-1.355816364E0,1.500093639E-1
5.234620000E-1,-1.232024074E0,-1.363141179E0,1.568773985E-1
5.334800000E-1,-9.468626976E-1,-1.388926744E0,1.585668772E-1
5.434990000E-1,-5.481411219E-1,-1.254710436E0,1.320212781E-1
5.535170000E-1,-7.370187342E-2,-9.571996331E-1,4.522433877E-2
5.635360000E-1,3.927558362E-1,-5.760077834E-1,-5.201593041E-2
5.735540000E-1,7.554815412E-1,-1.409958899E-1,-1.578187943E-1
5.835730000E-1,9.994175434E-1,3.090318739E-1,-2.563546896E-1
5.935910000E-1,1.183846831E0,7.769375443E-1,-2.984158397E-1
6.036100000E-1,1.342430592E0,1.198338628E0,-2.571246028E-1
6.136280000E-1,1.505179524E0,1.399776101E0,-3.026806116E-1
6.236470000E-1,1.493301272E0,1.508517981E0,-4.420962930E-1
6.336650000E-1,1.288329005E0,1.353197932E0,-6.105375290E-1
6.436840000E-1,9.373369217E-1,1.034471512E0,-6.666596532E-1
6.537020000E-1,5.029144883E-1,6.425673962E-1,-5.815054178E-1
6.637200000E-1,5.381126702E-2,5.058204532E-1,-4.356880486E-1
6.737390000E-1,-3.575623333E-1,4.627327621E-1,-2.930256128E-1
6.837570000E-1,-6.173073649E-1,3.578761220E-1,-1.512253135E-1
6.937760000E-1,-6.894772053E-1,2.051110864E-1,-3.071625158E-2
7.037940000E-1,-6.403849721E-1,9.870713204E-2,4.163837433E-2
7.138130000E-1,-5.549505949E-1,1.773477048E-1,-1.606634818E-3
7.238310000E-1,-4.949453175E-1,1.288853735E-1,-1.472930014E-1
7.338500000E-1,-5.461363196E-1,-2.271029353E-1,-2.479785979E-1
7.438672917E-1,-7.386450171E-1,-6.007716060E-1,-2.093853951E-1
7.538862916E-1,-9.688357711E-1,-9.649701118E-1,-8.892995119E-2
7.639042916E-1,-1.110910892E0,-1.196927786E0,-3.536487930E-3
7.739232917E-1,-1.122210979E0,-1.511870265E0,1.333022714E-1
7.839412917E-1,-1.130270481E0,-1.618692279E0,2.570348680E-1
7.939602917E-1,-1.185039282E0,-1.624627948E0,3.414786160E-1
8.039782917E-1,-1.227908731E0,-1.600925803E0,2.993308902E-1
8.139972917E-1,-1.288166165E0,-1.752219200E0,2.361601591E-1
8.240152916E-1,-1.288052440E0,-1.452712417E0,3.007300794E-1
8.340342916E-1,-1.128272295E0,-9.915071130E-1,3.126738966E-1
8.440522916E-1,-9.436305761E-1,-7.270496488E-1,3.232074976E-1
8.540712917E-1,-8.947020769E-1,-3.211177588E-1,3.359447420E-1
8.640892917E-1,-1.039525270E0,-2.354979366E-1,2.621786594E-1
8.741082917E-1,-9.488637447E-1,-7.702042162E-2,1.118542254E-1
8.841262917E-1,-7.273159027E-1,8.212076128E-2,-4.814076424E-2
8.941452916E-1,-5.066534877E-1,1.938062161E-1,-2.309773415E-1
9.041632916E-1,-3.504318595E-1,2.869715691E-1,-3.828145266E-1
9.141822917E-1,-3.087098300E-1,4.615177512E-1,-4.602489769E-1
9.242002917E-1,-2.805708945E-1,5.830116868E-1,-3.834120035E-1
9.342192917E-1,-2.930232286E-1,6.510476470E-1,-3.954108059E-1
9.442372917E-1,-3.412173986E-1,6.944994926E-1,-4.334726930E-1
9.542562916E-1,-3.125341237E-1,5.945132375E-1,-3.670124710E-1
9.642742916E-1,-3.170311451E-1,8.983828425E-1,-2.921116054E-1
9.742932917E-1,-3.748642206E-1,1.035309553E0,-3.113948703E-1
9.843112917E-1,-6.559749842E-1,4.505531192E-1,-2.262424380E-1
9.943302917E-1,-8.766478300E-1,-7.894276977E-1,-4.462950230E-1
1.004348292E0,-8.573777080E-1,-1.503908515E0,-6.952918172E-1
1.014367292E0,-8.760833144E-1,-1.466755509E0,-6.422262788E-1
1.024385292E0,-7.890610695E-1,-1.635041475E0,-4.617044628E-1
1.034404292E0,-7.479526997E-1,-1.499500632E0,-9.625452757E-2
1.044422292E0,-9.483601451E-1,-1.201218605E0,1.855252087E-1
1.054441292E0,-1.602260590E0,-1.279610753E0,3.496509492E-1
1.064459292E0,-2.350854397E0,-1.131460667E0,4.936680198E-1
1.074478292E0,-3.047648668E0,-1.567738056E0,5.094054937E-1
1.084496292E0,-3.577858686E0,-2.332178116E0,4.036625624E-1
1.094515292E0,-3.708523035E0,-2.810288429E0,1.699703485E-1
1.104533292E0,-3.330686331E0,-3.025091171E0,-1.365567651E-2
1.114552292E0,-2.471747875E0,-3.177166462E0,8.079960942E-2
1.124570292E0,-1.294662476E0,-3.305691957E0,3.828034103E-1
1.134589292E0,-1.255443841E-1,-3.188616037E0,6.892974377E-1
1.144607292E0,7.721846104E-1,-2.709838390E0,9.800794721E-1
1.154626292E0,1.220169783E0,-2.267010927E0,1.450067282E0
1.164644292E0,1.267746329E0,-1.997712731E0,1.883356690E0
1.174663292E0,1.051028967E0,-1.968241096E0,2.001083374E0
1.184681292E0,7.201561332E-1,-2.232209444E0,1.833995581E0
1.194700292E0,4.029954970E-1,-2.377918482E0,1.650288939E0
1.204718292E0,1.878786683E-1,-2.339602947E0,1.675858736E0
1.214737292E0,1.297156066E-1,-2.217988253E0,2.002247334E0
1.224755292E0,2.194822580E-1,-2.136690378E0,2.494450331E0
1.234774292E0,4.232296348E-1,-2.134899855E0,2.837714195E0
1.244792292E0,6.054519415E-1,-2.143007755E0,2.951876402E0
1.254811292E0,8.434628844E-1,-2.096761465E0,2.949171782E0
1.264829292E0,1.175912499E0,-1.989380836E0,3.018606663E0
1.274848292E0,1.592254043E0,-2.132207155E0,3.125727415E0
1.284866292E0,2.026677847E0,-2.661966085E0,3.098119974E0
1.294885292E0,2.412839174E0,-3.128201723E0,2.992938042E0
1.304903292E0,2.649768353E0,-3.049762487E0,2.846305847E0
1.314922292E0,2.729156017E0,-2.446506023E0,2.781362772E0
1.324940292E0,2.641581535E0,-1.604896665E0,2.904242992E0
1.334959292E0,2.429419756E0,-6.857334375E-1,3.157676220E0
1.344977292E0,2.076228857E0,-1.094053686E-1,3.395838022E0
1.354996292E0,1.660576940E0,-4.973510280E-2,3.483342648E0
1.365014292E0,1.351492405E0,-1.292299330E-1,3.526495457E0
1.375033292E0,1.181002617E0,-8.238204718E-1,3.542607546E0
1.385051292E0,1.073531151E0,-1.889648199E0,3.490463495E0
1.395070292E0,8.881989121E-1,-2.046036959E0,3.569246292E0
1.405088292E0,6.946930885E-1,-1.154008985E0,3.704033852E0
1.415107292E0,2.422830015E-1,2.816161513E-1,3.979245424E0
1.425125292E0,-2.680287361E-1,1.348792195E0,3.919196844E0
1.435144292E0,-4.180482030E-1,1.439490438E0,3.874201059E0
1.445162292E0,6.149521843E-2,6.913495660E-1,4.042153835E0
1.455181292E0,8.397025466E-1,1.953388564E-2,3.986640453E0
1.465199292E0,1.475655675E0,-8.175293207E-1,3.544252396E0
1.475218292E0,1.792478561E0,-1.727283120E0,2.866173506E0
1.485236292E0,1.882532120E0,-2.364768982E0,2.447830200E0
1.495255292E0,1.862747073E0,-2.589716673E0,2.364948034E0
1.505273292E0,1.810753942E0,-2.681833029E0,2.472139835E0
1.515292292E0,1.576343417E0,-2.522291183E0,2.574293852E0
1.525310292E0,1.276084304E0,-2.417340755E0,2.865037918E0
1.535329292E0,8.116647005E-1,-2.011407852E0,3.290964365E0
1.545347292E0,4.413625300E-1,-1.975607753E0,3.663275003E0
1.555366292E0,3.404610157E-1,-1.923288584E0,3.850687265E0
1.565384292E0,3.443734646E-1,-1.873995304E0,3.983147144E0
1.575403292E0,4.644229710E-1,-1.288686991E0,4.103286266E0
1.585421292E0,4.976901114E-1,-7.171596289E-1,4.148091793E0
1.595440292E0,3.894176483E-1,-1.899444461E-1,4.033714771E0
1.605458292E0,2.426255345E-1,3.473030329E-1,3.954066277E0
1.615477292E0,7.224576920E-2,7.716042399E-1,3.873250723E0
1.625495292E0,-2.310752273E-1,1.209185958E0,3.662997007E0
1.635514292E0,-6.945069432E-1,1.407612681E0,3.472878695E0
1.645532292E0,-1.144038200E0,1.762176275E0,3.334656239E0
1.655551292E0,-1.665020704E0,1.895393491E0,3.069225788E0
1.665569292E0,-2.204585075E0,1.915908575E0,2.886294127E0
1.675588292E0,-2.640863657E0,2.241394043E0,2.644466877E0
1.685606292E0,-3.028443575E0,2.488619804E0,2.137729168E0
1.695625292E0,-3.129952431E0,2.595165491E0,1.471458316E0
1.705644292E0,-2.912368774E0,2.540924072E0,9.829650521E-1
1.715662292E0,-2.495148182E0,2.407577038E0,8.384364247E-1
1.725681292E0,-1.977546453E0,2.135647774E0,8.515807390E-1
1.735699292E0,-1.512647033E0,1.805420756E0,1.070966244E0
1.745719125E0,-1.148362279E0,1.454835296E0,1.509071469E0
1.755737125E0,-9.298787713E-1,1.100147247E0,1.786641598E0
1.765756125E0,-8.942009807E-1,8.032143712E-1,1.969839692E0
1.775774125E0,-9.831922650E-1,6.029970050E-1,2.073175192E0
1.785793125E0,-1.106890559E0,3.902037442E-1,2.104076385E0
1.795811125E0,-1.118528366E0,2.675167099E-2,2.182949305E0
1.805830125E0,-9.150236249E-1,-3.994614184E-1,2.367617607E0
1.815848125E0,-5.796393752E-1,-7.281314731E-1,2.484256506E0
1.825867125E0,-1.822225302E-1,-8.439589739E-1,2.480205774E0
1.835885125E0,1.901444346E-1,-7.125049829E-1,2.302218437E0
1.845904125E0,6.263321042E-1,-4.235472381E-1,1.829929709E0
1.855922125E0,9.138587117E-1,-5.178280640E-3,1.356880069E0
1.865941125E0,9.561563730E-1,3.227292895E-1,9.667558074E-1
1.875959125E0,8.720448613E-1,3.259359896E-1,5.287332535E-1
1.885978125E0,6.422126889E-1,1.664965302E-1,3.360980749E-2
1.895996125E0,2.817698717E-1,-1.163359359E-1,-3.669410050E-1
1.906015125E0,-2.199372053E-1,-4.047823846E-1,-7.264765501E-1
1.916033125E0,-7.949725986E-1,-5.794775486E-1,-1.112616658E0
1.926052125E0,-1.341405392E0,-7.577468753E-1,-1.546916246E0
1.936070125E0,-1.733576655E0,-7.598184347E-1,-2.011139154E0
1.946089125E0,-2.087205648E0,-6.978344321E-1,-2.492276669E0
1.956107125E0,-2.412890911E0,-6.486137509E-1,-2.902048111E0
1.966126125E0,-2.651108742E0,-4.991715550E-1,-3.138998270E0
1.976144125E0,-2.637259483E0,-3.268436193E-1,-3.279277563E0
1.986163125E0,-2.424136639E0,-3.219881654E-1,-3.337789536E0
1.996181125E0,-2.167724609E0,-6.562328935E-1,-3.348700285E0
2.006200125E0,-1.933924675E0,-1.360888243E0,-3.325081348E0
2.016219125E0,-1.862110615E0,-2.135311127E0,-3.332008362E0
2.026237125E0,-1.948146701E0,-2.660254955E0,-3.330141544E0
2.036256125E0,-2.138179302E0,-2.929356337E0,-3.323656082E0
2.046274125E0,-2.235226154E0,-2.957641125E0,-3.227109671E0
2.056293125E0,-1.909944296E0,-2.882351875E0,-2.870858431E0
2.066311125E0,-1.097631454E0,-2.599204779E0,-2.468106270E0
2.076330125E0,-8.189328760E-2,-2.219276667E0,-2.316180706E0
2.086348125E0,7.041778564E-1,-1.711359262E0,-2.413798571E0
2.096367125E0,1.023233056E0,-1.050617099E0,-2.609181404E0
2.106385125E0,8.949300051E-1,-7.320633531E-1,-2.739303827E0
2.116404125E0,4.066528976E-1,-7.390376329E-1,-2.641759634E0
2.126422125E0,-2.816194892E-1,-1.216704130E0,-2.379054070E0
2.136441125E0,-5.355786681E-1,-2.156750679E0,-2.136323452E0
2.146459125E0,-1.236675754E-1,-2.871838331E0,-1.982939959E0
2.156478125E0,6.654037833E-1,-2.947326660E0,-1.939206600E0
2.166496125E0,1.496642113E0,-2.419198513E0,-1.781207085E0
2.176515125E0,1.925941825E0,-1.356274486E0,-1.411476970E0
2.186533125E0,1.561329842E0,-2.674514353E-1,-9.712767601E-1
2.196552125E0,9.814249873E-1,3.114403188E-1,-6.422465444E-1
2.206570125E0,6.266961694E-1,2.023157030E-1,-3.321653605E-1
2.216589125E0,3.792343736E-1,-6.080029905E-2,-8.213515580E-2
2.226608125E0,2.352473736E-1,-3.305508196E-1,5.646187812E-2
2.236626125E0,1.923217177E-1,-1.541998684E-1,7.499986887E-2
2.246645125E0,2.222433984E-1,1.672833413E-1,-2.156315930E-2
2.256663125E0,3.198205829E-1,3.292266130E-1,-2.001956999E-1
2.266682125E0,4.309103787E-1,5.897282362E-1,-4.513206184E-1
2.276700125E0,4.008496404E-1,1.006729007E0,-5.514685512E-1
2.286719125E0,3.637094498E-1,1.387702465E0,-1.563707739E-1
2.296737125E0,2.834896445E-1,1.500494361E0,2.347322106E-1
2.306756125E0,3.446664512E-1,1.440925837E0,2.003071159E-1
2.316774125E0,4.795162976E-1,1.335844517E0,1.782565564E-1
2.326793125E0,6.035066843E-1,9.725696445E-1,4.094825685E-1
2.336811125E0,5.208824277E-1,7.344789505E-1,6.425494552E-1
2.346830125E0,4.049190879E-1,5.791026950E-1,6.739609241E-1
2.356848125E0,3.914648592E-1,4.016695321E-1,4.059921205E-1
2.366867125E0,3.698168099E-1,1.377028823E-1,3.772834688E-2
2.376885125E0,2.431524098E-1,1.638563722E-2,-8.914992213E-2
2.386904125E0,4.645533860E-2,-1.732442230E-1,5.327673256E-2
2.396922125E0,-5.887173116E-2,-1.610095650E-1,2.197915763E-1
2.406941125E0,-8.623278141E-2,2.419578582E-1,3.019415736E-1
2.416960125E0,-5.694518983E-2,8.192493916E-1,4.059569240E-1
2.426978125E0,-4.761986434E-2,1.181396365E0,2.960775495E-1
2.436997125E0,9.046351165E-2,4.913883507E-1,2.067589462E-1
2.447015125E0,3.994208276E-1,-8.179122210E-1,4.040789604E-1
2.457034125E0,7.544752955E-1,-1.950932384E0,7.712944746E-1
2.467052125E0,1.144886494E0,-2.517157793E0,1.060913205E0
2.477071125E0,1.402710795E0,-2.128254652E0,1.418094993E0
2.487089125E0,1.305492401E0,-1.164250851E0,1.707318544E0
2.497108125E0,8.776015639E-1,5.897961259E-1,2.028449059E0
2.507126125E0,3.176418543E-1,2.167298794E0,2.354951143E0
2.517145125E0,-3.933271766E-1,2.545934677E0,2.580358505E0
2.527163125E0,-9.990144372E-1,2.038639307E0,2.679275751E0
2.537182125E0,-1.284410000E0,1.281040549E0,2.774209976E0
2.547200125E0,-1.270380616E0,5.723214149E-1,2.794086695E0
2.557219125E0,-1.132928729E0,-1.578969806E-1,2.767018080E0
2.567237125E0,-1.060601473E0,-8.533372283E-1,2.869251490E0
2.577256125E0,-9.558726549E-1,-1.171634316E0,3.200604916E0
2.587275125E0,-7.119012475E-1,-9.998998046E-1,3.768032789E0
2.597293125E0,-2.754565477E-1,-3.513200581E-1,4.443334103E0
2.607312125E0,8.968361467E-2,2.769556046E-1,4.715106964E0
2.617330125E0,-2.716138773E-2,3.508925438E-2,3.840640783E0
2.627349125E0,-1.520521939E-1,-3.070625067E-1,2.843245029E0
2.637367125E0,-3.057983145E-2,-8.423971534E-1,2.250818729E0
2.647386125E0,6.643620133E-2,-1.112644315E0,1.831560969E0
2.657404125E0,3.396187909E-3,-6.973101497E-1,1.437700629E0
2.667423125E0,-8.416455239E-2,1.680020243E-2,1.117096543E0
2.677441125E0,-7.999537140E-2,6.601413488E-1,1.140548587E0
2.687460125E0,-5.276961252E-2,1.291004300E0,1.653843880E0
2.697478125E0,-1.498144716E-1,2.373578787E0,2.345624208E0
2.707497125E0,-3.859329820E-1,3.014262199E0,2.896185398E0
2.717516125E0,-5.819285512E-1,2.750882626E0,3.451545238E0
2.727534125E0,-4.851951003E-1,1.710363626E0,3.931860685E0
2.737553125E0,-1.810832024E-1,6.717733145E-1,4.260261536E0
2.747571250E0,-2.769924235E-3,3.991224989E-2,4.512580395E0
2.757590250E0,-1.954114586E-1,-3.159037232E-1,4.589091301E0
2.767608250E0,-3.547270894E-1,-8.066198826E-1,4.483597279E0
2.777627250E0,-3.756286204E-1,-1.385771394E0,4.288182259E0
2.787645250E0,-3.289002776E-1,-2.493818998E0,4.393060207E0
2.797664250E0,-3.028067350E-1,-3.876971960E0,4.852010727E0
2.807682250E0,-3.810988665E-1,-4.930812836E0,4.971097946E0
2.817701250E0,-5.437010527E-1,-5.305579662E0,4.358672142E0
2.827719250E0,-7.969176173E-1,-4.915309906E0,3.475651503E0
2.837738250E0,-9.823046327E-1,-3.741212368E0,2.780674458E0
2.847757250E0,-9.197051525E-1,-2.220882416E0,2.425540686E0
2.857775250E0,-6.479964256E-1,-7.372380495E-1,2.238930225E0
2.867794250E0,-2.990531027E-1,5.386523008E-1,2.250966549E0
2.877812250E0,-8.750431985E-2,1.260145068E0,2.419003487E0
2.887831250E0,-1.363522857E-1,1.223508477E0,2.438279867E0
2.897849250E0,-3.373930752E-1,5.113134980E-1,1.985006332E0
2.907868250E0,-4.600582719E-1,-3.264988661E-1,1.247999668E0
2.917886250E0,-3.883155882E-1,-9.329733253E-1,4.777709544E-1
2.927905250E0,-1.289236844E-1,-1.035032272E0,-6.448990107E-2
2.937923250E0,2.391343564E-1,-7.151587605E-1,-2.643980682E-1
2.947942250E0,4.861430824E-1,-3.222266436E-1,-1.453710347E-1
2.957960250E0,3.908694685E-1,-2.100513726E-1,3.555525560E-3
2.967979250E0,8.340112865E-2,-1.914715618E-1,5.869787186E-2
2.977998250E0,-1.847672462E-1,-8.101581037E-2,8.749858290E-2
2.988016250E0,-2.914931476E-1,8.967843652E-2,9.934752434E-2
2.998035250E0,-2.572561502E-1,1.964247078E-1,6.746382266E-2
3.008053250E0,-1.522282511E-1,1.848838925E-1,1.965608634E-2
3.018072250E0,-2.186855488E-2,1.022345573E-1,-6.703762338E-3
3.028090250E0,7.766123116E-2,3.294470161E-2,-2.191573754E-2
3.038109250E0,1.129190400E-1,4.290986434E-2,-2.876970172E-2
3.048127250E0,7.752270252E-2,9.735925496E-2,-2.759417892E-2
3.058146250E0,2.087158523E-2,1.539724320E-1,-1.562842540E-2
3.068164250E0,-1.069273241E-2,1.735450625E-1,-8.206460625E-3
3.078183250E0,-5.358837545E-3,1.216106787E-1,-1.138562895E-2
3.088202250E0,1.534111518E-2,4.394545034E-2,-4.119194113E-3
3.098220250E0,3.297167271E-2,-8.421321400E-3,-2.874002792E-3
3.108239250E0,3.863222152E-2,-1.346961036E-2,-3.765628673E-3
3.118257250E0,3.364864737E-2,1.461368985E-2,-1.173460670E-2
3.128276250E0,3.525560349E-2,4.999165609E-2,-2.303360030E-2
3.138294250E0,4.275053740E-2,8.004117012E-2,-3.404044360E-2
3.148313250E0,6.028405204E-2,9.375651181E-2,-3.829957545E-2
3.158331250E0,7.184914500E-2,8.645956218E-2,-4.013417661E-2
3.168350250E0,7.741329074E-2,6.539635360E-2,-2.268381231E-2
3.178368250E0,7.147364318E-2,5.040968582E-2,-7.074074820E-4
3.188387250E0,5.743399262E-2,5.335007980E-2,1.058625989E-2
3.198406250E0,3.807586804E-2,7.591146231E-2,2.088591084E-2
3.208424250E0,2.127239108E-2,1.039465591E-1,3.059739433E-2
3.218443250E0,1.988888346E-2,1.357308328E-1,2.532911301E-2
3.228461250E0,3.050024994E-2,1.826128513E-1,1.724615321E-2
3.238480250E0,4.312928766E-2,2.307386845E-1,9.830679744E-3
3.248498250E0,4.232581332E-2,2.188202292E-1,-1.892820932E-3
3.258517250E0,3.686036170E-2,1.565696895E-1,6.704513915E-3
3.268535250E0,3.088449501E-2,1.090660840E-1,1.162736770E-2
3.278554250E0,3.190721944E-2,1.108198464E-1,3.772705328E-3
3.288572250E0,3.099561855E-2,1.280981600E-1,-4.579500295E-3
3.298591250E0,3.397155926E-2,1.355988234E-1,-1.149532758E-2
3.308610250E0,3.370923921E-2,1.180858836E-1,-9.873196483E-3
3.318628250E0,3.729227185E-2,6.843625754E-2,-1.106546633E-2
3.328647250E0,3.903051466E-2,-1.560484525E-2,-1.473769918E-2
3.338665250E0,4.371926188E-2,-1.126695722E-1,-1.293716207E-2
3.348684250E0,4.124545306E-2,-1.949580461E-1,-8.092340082E-3
