"Time (s)","Acceleration x (m/s^2)","Acceleration y (m/s^2)","Acceleration z (m/s^2)"
0.000000000E0,-4.812138379E-1,4.900720119E0,8.774372101E0
4.904844000E-3,-4.453023672E-1,4.836079597E0,8.839013100E0
9.809688000E-3,-3.471443057E-1,4.812138557E0,8.805495262E0
1.471453100E-2,-1.819514930E-1,4.840867519E0,8.750431061E0
1.961937500E-2,9.576394223E-3,4.910296440E0,8.618755341E0
2.452421900E-2,2.106806934E-1,4.986907482E0,8.446379662E0
2.942906300E-2,3.854499161E-1,5.058730602E0,8.274005890E0
3.433390600E-2,5.195194483E-1,5.109006405E0,8.065718651E0
3.923875000E-2,5.841601491E-1,5.132947445E0,7.926860809E0
4.414359400E-2,5.697954893E-1,5.135342121E0,7.912496567E0
4.904843800E-2,5.219135284E-1,5.128159523E0,7.893343449E0
5.395328100E-2,4.836079478E-1,5.113794804E0,7.857431889E0
5.885812500E-2,4.476964772E-1,5.080277443E0,7.867008686E0
6.376296900E-2,4.189672768E-1,5.053942680E0,7.878979206E0
6.866781300E-2,4.237554669E-1,5.058730602E0,7.910102367E0
7.357265600E-2,4.668492377E-1,5.099430561E0,7.957983971E0
7.847750000E-2,5.243076086E-1,5.173647404E0,7.984319687E0
8.338234400E-2,5.554309487E-1,5.223923683E0,8.008260727E0
8.828718800E-2,5.386722088E-1,5.250258446E0,8.034595490E0
9.319203100E-2,5.219135284E-1,5.278987408E0,8.058536530E0
9.809687500E-2,5.075489283E-1,5.283775806E0,8.113600731E0
1.030017190E-1,4.596669674E-1,5.262228966E0,8.173453331E0
1.079065630E-1,3.950262666E-1,5.243076324E0,8.228517532E0
1.128114060E-1,3.375679255E-1,5.235894203E0,8.367375374E0
1.177162500E-1,2.896859348E-1,5.250258446E0,8.508626938E0
1.226210940E-1,2.298334837E-1,5.290957928E0,8.558902740E0
1.275259380E-1,1.723751128E-1,5.329264164E0,8.539750099E0
1.324307810E-1,1.077344418E-1,5.341234684E0,8.465533257E0
1.373356250E-1,4.309377819E-2,5.331657887E0,8.379345894E0
1.422404690E-1,1.197049394E-2,5.302928448E0,8.300340652E0
1.471453130E-1,-1.197049394E-2,5.252652645E0,8.214153290E0
1.520501560E-1,-7.182296365E-3,5.204770565E0,8.142330170E0
1.569550000E-1,4.309377819E-2,5.161676884E0,8.068113327E0
1.618598440E-1,1.268872321E-1,5.147312641E0,7.965166569E0
1.667646880E-1,1.436459273E-1,5.111401081E0,8.159088135E0
1.716695310E-1,2.154688910E-2,5.030001640E0,9.286708832E0
1.765743750E-1,7.421706617E-2,5.061124802E0,1.062740421E1
1.814792190E-1,4.453023672E-1,5.250258446E0,1.015337276E1
1.863840630E-1,7.685056925E-1,5.367569447E0,8.331463814E0
1.912889060E-1,8.187817335E-1,5.278987408E0,7.268484116E0
1.961937500E-1,6.966827512E-1,5.089853764E0,7.038650513E0
2.010985940E-1,5.913423896E-1,4.953390598E0,7.084137917E0
2.060034380E-1,5.961305499E-1,4.924661160E0,7.392977238E0
2.109082810E-1,6.990768313E-1,4.989302158E0,7.764061928E0
2.157922400E-1,8.235700130E-1,5.073094845E0,8.142330170E0
2.206444790E-1,8.977869749E-1,5.118583202E0,8.443985939E0
2.254854690E-1,8.499050736E-1,5.101824284E0,8.415257454E0
2.303257290E-1,5.410662889E-1,4.972542763E0,8.259640694E0
2.351659380E-1,-7.182296365E-2,4.723556995E0,8.302734375E0
2.400069790E-1,-8.738460541E-1,4.441052914E0,8.513415337E0
2.448479690E-1,-1.565740585E0,4.256707668E0,8.678607941E0
2.496881770E-1,-1.807544470E0,4.287830830E0,8.618755341E0
2.545283850E-1,-1.613622546E0,4.500905514E0,8.367375374E0
2.593694270E-1,-1.249719501E0,4.776226997E0,7.998683929E0
2.642104170E-1,-9.169397950E-1,5.006060600E0,7.629992485E0
2.690506250E-1,-7.924466729E-1,5.058730602E0,7.440858841E0
2.738908330E-1,-7.182296515E-1,4.977331638E0,7.302000999E0
2.787318750E-1,-4.596669674E-1,4.910296440E0,7.282848358E0
2.835728650E-1,-1.651928127E-1,4.809744358E0,7.541410923E0
2.884130730E-1,1.292813420E-1,4.618216515E0,8.075295448E0
2.932532810E-1,5.817660093E-1,4.397959709E0,8.968294144E0
2.980943230E-1,1.185078859E0,4.206431389E0,9.909174919E0
3.029353130E-1,1.891337991E0,4.053209305E0,1.033771801E1
3.077755210E-1,2.485074520E0,3.928715944E0,9.983391762E0
3.126157290E-1,2.748425245E0,3.775493860E0,9.286708832E0
3.174567710E-1,2.875312567E0,3.598330498E0,8.836618423E0
3.222977600E-1,2.916012287E0,3.461866856E0,8.628332138E0
3.271380210E-1,2.717302084E0,3.397226095E0,8.525385857E0
3.319782290E-1,2.362975597E0,3.387649775E0,8.513415337E0
3.368192190E-1,2.118777514E0,3.459472656E0,8.592419624E0
3.416602080E-1,2.226511717E0,3.593542337E0,9.025752068E0
3.465004690E-1,2.492256641E0,3.715641260E0,9.789469719E0
3.513406770E-1,2.171447515E0,3.753946781E0,9.710465431E0
3.561817190E-1,1.261690021E0,3.730005741E0,8.396103859E0
3.610227080E-1,6.057069898E-1,3.751552820E0,7.086532593E0
3.658629170E-1,4.381200671E-1,3.828164101E0,6.456884384E0
3.707031250E-1,4.022085965E-1,3.911957264E0,6.200716019E0
3.755441670E-1,2.944741547E-1,3.964627504E0,5.949335575E0
3.803851560E-1,2.130747885E-1,3.990962505E0,5.592614651E0
3.852253650E-1,1.675869077E-1,4.022086143E0,5.199982643E0
3.900655730E-1,2.872918546E-2,4.067573547E0,4.864808559E0
3.949066150E-1,-1.843456030E-1,4.117849827E0,4.666098595E0
3.997476040E-1,-3.830558062E-1,4.180096626E0,4.623004436E0
4.045878130E-1,-5.147312284E-1,4.227978706E0,4.936631680E0
4.094280210E-1,-7.062591314E-1,4.216008186E0,5.489668369E0
4.142690630E-1,-1.158743739E0,4.079544067E0,5.537550449E0
4.191100520E-1,-1.690233707E0,3.852104902E0,5.013243198E0
4.239503130E-1,-1.912884831E0,3.641424179E0,4.453023434E0
4.287905210E-1,-1.668686867E0,3.442713976E0,4.105879307E0
4.336315100E-1,-1.043827057E0,3.311038494E0,4.151367188E0
4.384725000E-1,-2.896859348E-1,3.294280052E0,4.711586475E0
4.433127600E-1,3.112328351E-1,3.275126934E0,5.580644131E0
4.481529690E-1,6.727417707E-1,3.179363251E0,6.387455463E0
4.529940100E-1,9.145457745E-1,3.090781450E0,6.995556355E0
4.578350000E-1,1.127620459E0,3.040505409E0,7.395370960E0
4.626752080E-1,1.307177901E0,2.987835169E0,7.531834602E0
4.675154170E-1,1.448429704E0,2.930376768E0,7.474376678E0
4.723564580E-1,1.551375985E0,2.868130207E0,7.352277279E0
4.771974480E-1,1.532223225E0,2.781942844E0,7.211025715E0
4.820377080E-1,1.436459303E0,2.686178684E0,7.100896835E0
4.868779170E-1,1.412518263E0,2.621538162E0,7.050621033E0
4.917189060E-1,1.541799664E0,2.607173443E0,7.098503113E0
4.965598960E-1,1.824303269E0,2.623932362E0,7.321154118E0
5.014001560E-1,2.152294636E0,2.688572884E0,7.687450886E0
5.062403650E-1,2.461133480E0,2.815460205E0,8.039383888E0
5.110814060E-1,2.793913364E0,3.002199650E0,8.295552254E0
5.159223960E-1,3.102751970E0,3.196121693E0,8.499051094E0
5.207626040E-1,3.301462173E0,3.337373734E0,8.681001663E0
5.256028130E-1,3.433137417E0,3.402014256E0,8.884499550E0
5.304438540E-1,3.571995258E0,3.402014256E0,9.114334106E0
5.352848440E-1,3.751552820E0,3.425955296E0,9.269949913E0
5.401251040E-1,3.933504343E0,3.502566576E0,9.387261391E0
5.449653130E-1,4.077150345E0,3.593542337E0,9.569212914E0
5.498063020E-1,4.187278748E0,3.708458900E0,9.724828720E0
5.546472920E-1,4.326136589E0,3.799434662E0,9.791864395E0
5.594875520E-1,4.441052914E0,3.806617022E0,9.753558159E0
5.643277600E-1,4.481752872E0,3.756340981E0,9.612305641E0
5.691688020E-1,4.505693913E0,3.674941540E0,9.420779228E0
5.740097920E-1,4.558363914E0,3.562418938E0,9.210098267E0
5.788500000E-1,4.608640194E0,3.430743456E0,8.992235184E0
5.836902080E-1,4.670886517E0,3.313432693E0,8.745642662E0
5.885312500E-1,4.802562237E0,3.215274572E0,8.590025902E0
5.933722400E-1,4.929449558E0,3.121904850E0,8.633119583E0
5.982125000E-1,4.991695881E0,3.047687769E0,8.767189980E0
6.030527080E-1,5.006060600E0,3.006988049E0,8.898864746E0
6.078936980E-1,5.041972160E0,3.023746729E0,9.097575188E0
6.127346880E-1,5.144917965E0,3.117116451E0,9.430355072E0
6.175749480E-1,5.300534725E0,3.239215612E0,9.825381279E0
6.224151560E-1,5.484879971E0,3.294280052E0,1.011746120E1
6.272561980E-1,5.623737812E0,3.246397972E0,1.018928432E1
6.320971880E-1,5.666831493E0,3.143451691E0,1.006957912E1
6.369373960E-1,5.678802013E0,3.040505409E0,9.854109764E0
6.417776040E-1,5.683590412E0,2.995017529E0,9.669765472E0
6.466186460E-1,5.176041603E0,3.109934330E0,9.806227684E0
6.514596350E-1,2.556897402E0,3.131481171E0,1.250437832E1
6.562998960E-1,5.283775806E0,3.038111210E0,1.398153687E1
6.611401040E-1,9.372897148E0,3.318220854E0,8.846195221E0
6.659811460E-1,7.874190807E0,3.617483139E0,4.824109077E0
6.708221350E-1,6.363514423E0,3.569601297E0,7.079349995E0
6.756623440E-1,5.314898968E0,3.538477898E0,9.751164436E0
6.805025520E-1,5.353205204E0,3.634242058E0,9.698493958E0
6.853435940E-1,5.872724056E0,3.708458900E0,8.640301704E0
6.901845830E-1,6.030734539E0,3.746764421E0,8.144723892E0
6.950248440E-1,6.011581898E0,3.868863583E0,8.216547012E0
6.998650520E-1,6.157621861E0,4.105879307E0,8.305128098E0
7.047060420E-1,6.471249104E0,4.369229794E0,8.372163773E0
7.095470310E-1,6.837545872E0,4.589487553E0,8.542143822E0
7.143872920E-1,7.117655277E0,4.761862278E0,8.709731102E0
7.192275000E-1,7.165537357E0,4.855232716E0,8.733672142E0
7.240685420E-1,5.843995094E0,4.905508518E0,9.224461555E0
7.289095310E-1,6.126498699E0,4.769044399E0,1.031856632E1
7.337497920E-1,7.981925011E0,4.702010155E0,9.090393066E0
7.385900000E-1,7.814338684E0,4.682857037E0,7.033862114E0
7.434309900E-1,6.667564869E0,4.309377670E0,7.766456604E0
7.482719790E-1,5.757807732E0,3.885622263E0,9.181368828E0
7.531122400E-1,5.618949890E0,3.636636019E0,9.521330833E0
7.579524480E-1,5.788930893E0,3.502566576E0,9.420779228E0
7.627934900E-1,5.894270897E0,3.437925816E0,9.432748795E0
7.676344790E-1,5.949335575E0,3.461866856E0,9.430355072E0
7.724746880E-1,6.023552418E0,3.595936298E0,9.231644630E0
7.773148960E-1,6.133680820E0,3.801828861E0,8.819860458E0
7.821559380E-1,6.286903381E0,4.055603027E0,8.341039658E0
7.869969270E-1,6.492795944E0,4.357259274E0,7.831097126E0
7.918371880E-1,6.744175911E0,4.692433357E0,7.275666237E0
7.966773960E-1,7.076955795E0,5.082671642E0,6.770511627E0
8.015184380E-1,7.462406158E0,5.532762051E0,6.315632343E0
8.063594270E-1,7.773638725E0,6.021158695E0,5.839207172E0
8.111996880E-1,6.863881111E0,6.545465946E0,5.810477734E0
8.160398960E-1,7.507893562E0,6.926127434E0,6.442519665E0
8.208808850E-1,9.442324638E0,7.412129402E0,5.082671642E0
8.257218750E-1,9.358531952E0,7.984319687E0,3.224850893E0
8.305621350E-1,8.441592216E0,8.271611214E0,3.794646502E0
8.354023440E-1,7.629992485E0,8.417651176E0,4.627792835E0
8.402433850E-1,7.486347198E0,8.472715378E0,4.589487553E0
8.450843750E-1,7.622810364E0,8.398497581E0,4.414718151E0
8.499245830E-1,7.632387161E0,8.221335411E0,4.816926479E0
8.547647920E-1,7.582110405E0,8.065718651E0,5.525579929E0
8.596058330E-1,7.534228802E0,7.931649208E0,5.956517696E0
8.644468230E-1,7.409735680E0,7.711391926E0,6.102557659E0
8.692870830E-1,7.220602036E0,7.400158882E0,6.308450222E0
8.741272920E-1,7.105685234E0,7.096108437E0,6.622076988E0
8.789683330E-1,7.124837875E0,6.897398472E0,6.974009514E0
8.838093230E-1,7.155961037E0,6.830363274E0,7.290030479E0
8.886495830E-1,7.076955795E0,6.820787430E0,7.495923042E0
8.934897920E-1,6.895004272E0,6.760934830E0,7.668298721E0
8.983307810E-1,6.686717987E0,6.626865387E0,7.876585007E0
9.031717710E-1,6.535889626E0,6.464066505E0,8.106418610E0
9.080120310E-1,6.466460705E0,6.344361305E0,8.283581734E0
9.128522400E-1,6.471249104E0,6.298873901E0,8.415257454E0
9.176932810E-1,6.461672306E0,6.301268101E0,8.542143822E0
9.225342710E-1,6.356331825E0,6.296479702E0,8.491868019E0
9.273745310E-1,6.236627102E0,6.320420265E0,8.257246971E0
9.322147400E-1,6.176774979E0,6.411396503E0,8.104024887E0
9.370557810E-1,6.121710300E0,6.504766464E0,8.125571251E0
9.418967710E-1,6.054675579E0,6.557436466E0,8.151906013E0
9.467369790E-1,6.045099735E0,6.607712269E0,8.070507050E0
9.515771880E-1,6.047493458E0,6.667564869E0,7.996290207E0
9.564182290E-1,6.009188175E0,6.703476429E0,7.922072887E0
9.612592190E-1,5.927788734E0,6.727417469E0,7.680268764E0
9.660994790E-1,5.834418297E0,6.789663792E0,7.340307236E0
9.709396880E-1,5.688378334E0,6.856698990E0,7.127232075E0
9.757807290E-1,5.410663128E0,6.837545872E0,7.064985275E0
9.806217190E-1,5.061124802E0,6.732205391E0,7.031467915E0
9.854619270E-1,4.759468555E0,6.586165428E0,6.995556355E0
9.903021350E-1,4.467388630E0,6.399425983E0,6.945280552E0
9.951431770E-1,4.220796108E0,6.188745499E0,6.895004272E0
9.999841670E-1,4.089120865E0,6.016369820E0,6.887822151E0
1.004824427E0,3.995750666E0,5.887088776E0,6.971615314E0
1.009664635E0,3.988568544E0,5.793718815E0,7.211025715E0
1.014505677E0,4.029268265E0,5.762595654E0,7.627598286E0
1.019346667E0,4.146578789E0,5.776960373E0,8.089659691E0
1.024186927E0,4.352471352E0,5.812871933E0,8.467926979E0
1.029027135E0,4.457811832E0,5.800901413E0,8.724096298E0
1.033868125E0,4.476964474E0,5.745837212E0,8.949140549E0
1.038709167E0,4.536817074E0,5.705137730E0,9.246008873E0
1.043549375E0,4.673281193E0,5.702743053E0,9.516543388E0
1.048389583E0,4.747498035E0,5.712319374E0,9.676946640E0
1.053230625E0,4.716374397E0,5.662043571E0,9.720041275E0
1.058071615E0,4.553575993E0,5.511215687E0,9.724828720E0
1.062911875E0,4.165731907E0,5.288564205E0,9.729617119E0
1.067752083E0,3.691700220E0,5.022819042E0,9.423172951E0
1.072593125E0,3.378073215E0,4.776226997E0,8.872529984E0
1.077434115E0,3.296674013E0,4.644551277E0,8.611573219E0
1.082274375E0,3.358920574E0,4.620610714E0,8.606784821E0
1.087114583E0,1.276054621E0,4.577517033E0,9.722434998E0
1.091955573E0,2.250452757E0,4.397959709E0,1.113495255E1
1.096796563E0,5.274199486E0,4.460206032E0,8.496656418E0
1.101636823E0,4.769044399E0,4.527240276E0,5.966094017E0
1.106477031E0,4.127426147E0,4.438659191E0,7.055408955E0
1.111318073E0,3.813799143E0,4.508088112E0,8.060930252E0
1.116159063E0,3.686912060E0,4.508088112E0,8.671425819E0
1.120999323E0,3.816193581E0,4.476964474E0,8.920412064E0
1.125839531E0,4.141790867E0,4.541605473E0,8.613966942E0
1.130680573E0,4.374018669E0,4.646945477E0,8.266822815E0
1.135521563E0,4.493723392E0,4.718768597E0,8.104024887E0
1.140361823E0,4.524846554E0,4.766650677E0,7.946013451E0
1.145202031E0,3.706064701E0,4.821714878E0,8.080083847E0
1.150043073E0,3.844922543E0,4.773832798E0,8.997022629E0
1.154884063E0,5.645285130E0,4.850443840E0,7.955589771E0
1.159724271E0,6.198321342E0,5.032395363E0,5.760201454E0
1.164564479E0,5.508821011E0,5.087460041E0,5.786536694E0
1.169405521E0,5.039577961E0,5.178435326E0,6.267750263E0
1.174246510E0,4.943813801E0,5.238287926E0,6.047493458E0
1.179086771E0,5.061124802E0,5.233500004E0,5.604585171E0
1.183926979E0,5.360386848E0,5.257441044E0,5.207164764E0
1.188768021E0,5.609373569E0,5.350810528E0,4.965361118E0
1.193609010E0,5.846388817E0,5.492062569E0,4.840867519E0
1.198449271E0,6.128892899E0,5.635708332E0,4.721162319E0
1.203289479E0,6.341967583E0,5.757807732E0,4.678069115E0
1.208130469E0,6.598135948E0,5.887088776E0,4.733132839E0
1.212971510E0,6.880640030E0,6.049887657E0,4.706798077E0
1.217811719E0,7.048226357E0,6.248597622E0,4.479359150E0
1.222651927E0,7.084137917E0,6.461672306E0,4.110667706E0
1.227492969E0,6.959644794E0,6.679535389E0,3.765917301E0
1.232333958E0,6.904581070E0,6.906974792E0,3.586359978E0
1.237174219E0,6.971615314E0,7.120049477E0,3.543266296E0
1.242014427E0,6.930915833E0,7.304395676E0,3.571995258E0
1.246855469E0,6.760934830E0,7.493528843E0,3.545660257E0
1.251696458E0,6.456884384E0,7.641963005E0,3.442713976E0
1.256536719E0,6.037917137E0,7.658721924E0,3.421166897E0
1.261376927E0,5.669226170E0,7.560564041E0,3.552842617E0
1.266217969E0,5.420239449E0,7.419312000E0,3.801828861E0
1.271058958E0,5.240682125E0,7.275666237E0,4.091514587E0
1.275899219E0,5.094642162E0,7.177507877E0,4.326136589E0
1.280739427E0,4.943813801E0,7.146385193E0,4.345289230E0
1.285580417E0,4.821714878E0,7.141596317E0,4.129820347E0
1.290421458E0,4.752285957E0,7.153566837E0,3.899986744E0
1.295261667E0,4.716374397E0,7.208631516E0,3.768311501E0
1.300101875E0,4.718768597E0,7.292425156E0,3.660577059E0
1.304942917E0,4.663704395E0,7.395370960E0,3.437925816E0
1.309783906E0,4.579911232E0,7.562957764E0,3.009382248E0
1.314624167E0,4.558363914E0,7.778427124E0,2.518591881E0
1.319464375E0,4.522452354E0,7.960378647E0,2.125959635E0
1.324305417E0,4.450629711E0,8.063324928E0,1.869791150E0
1.329146406E0,4.323742390E0,8.118389130E0,1.747692108E0
1.333986667E0,4.137002945E0,8.132753372E0,1.819514990E0
1.338826875E0,3.974204063E0,8.111206055E0,2.109200954E0
1.343667917E0,3.799434662E0,8.065718651E0,2.453951359E0
1.348508906E0,3.715641260E0,8.070507050E0,2.901647806E0
1.353349167E0,3.768311501E0,7.984319687E0,3.346950054E0
1.358189375E0,4.766650677E0,7.981925011E0,2.540138721E0
1.363030365E0,5.231105804E0,8.056142807E0,1.225778461E0
1.367871406E0,4.311771870E0,7.941225529E0,1.175502539E0
1.372711615E0,3.871257782E0,7.869402409E0,1.465188384E0
1.377551823E0,3.291885853E0,7.747303486E0,1.678263307E0
1.382392865E0,4.220796108E0,7.582110405E0,1.728539228E0
1.387233854E0,5.444180489E0,7.608446121E0,4.405141473E-1
1.392074115E0,4.709191799E0,7.701815605E0,-6.679535508E-1
1.396914323E0,4.132214546E0,7.776032448E0,-6.296479702E-1
1.401755365E0,4.081938267E0,7.792791367E0,-6.081010699E-1
1.406596354E0,4.134608269E0,7.701815605E0,-8.163877130E-1
1.411436615E0,4.206431389E0,7.591687202E0,-1.299995661E0
1.416276823E0,4.400353432E0,7.515076160E0,-1.778815389E0
1.421117865E0,4.637369633E0,7.436070442E0,-1.946402192E0
1.425958854E0,4.881567478E0,7.373824120E0,-1.891337991E0
1.430799115E0,5.125765324E0,7.345095158E0,-1.735721588E0
1.435639323E0,5.283775806E0,7.318759918E0,-1.264084101E0
1.440480365E0,5.410663128E0,7.237360477E0,-4.764256477E-1
1.445321354E0,5.614161491E0,7.110473633E0,2.968682647E-1
1.450161615E0,5.836812496E0,6.926127434E0,7.924466729E-1
1.455001823E0,5.990035057E0,6.753752708E0,9.432749152E-1
1.459842865E0,6.088192940E0,6.669959068E0,8.235700130E-1
1.464683854E0,6.176774979E0,6.619682789E0,5.674013495E-1
1.469524115E0,6.054675579E0,6.581377506E0,4.213613868E-1
1.474364323E0,5.635708332E0,6.622076988E0,4.333318770E-1
1.479205313E0,5.312504768E0,6.765723228E0,3.926321864E-1
1.484046354E0,5.223923683E0,6.904581070E0,2.801095545E-1
1.488886615E0,5.065913200E0,7.029074192E0,1.867396981E-1
1.493726823E0,4.946208000E0,7.187084675E0,2.394098788E-2
1.498567813E0,5.061124802E0,7.294818878E0,-2.250452787E-1
1.503408802E0,5.183224201E0,7.313971519E0,-4.141790867E-1
1.508249063E0,5.269411564E0,7.318759918E0,-5.314899087E-1
1.513089271E0,5.420239449E0,7.357065678E0,-6.081010699E-1
1.517930313E0,5.650073051E0,7.460011482E0,-6.751358509E-1
1.522771302E0,5.923000336E0,7.658721924E0,-8.906047344E-1
1.527611563E0,6.018764496E0,7.924467087E0,-1.156349778E0
1.532451771E0,5.676407814E0,8.082477570E0,-1.197049379E0
1.537292813E0,5.123371601E0,7.960378647E0,-1.367030382E0
1.542133802E0,4.702010155E0,8.120782852E0,-9.887627959E-1
1.546974063E0,4.663704395E0,8.819860458E0,-3.998144865E-1
1.551814271E0,5.013243198E0,9.581183434E0,-8.211758733E-1
1.556655313E0,5.269411564E0,1.036884212E1,-1.903308511E0
1.561496302E0,5.336445808E0,1.115171242E1,-3.449896336E0
1.566336563E0,5.578249931E0,1.173108387E1,-5.082671642E0
1.571176771E0,5.630920410E0,1.219793320E1,-6.564619064E0
1.576017813E0,4.979725361E0,1.253550053E1,-7.732938766E0
1.580858802E0,4.108273506E0,1.257141304E1,-8.367375374E0
1.585699063E0,3.337373734E0,1.237270164E1,-8.568478584E0
1.590539271E0,2.669420004E0,1.187233639E1,-8.183029175E0
1.595380313E0,2.291152477E0,1.102243137E1,-7.012314796E0
1.600221302E0,2.374946117E0,1.002888012E1,-5.532762051E0
1.605061563E0,3.047687769E0,9.190944672E0,-3.878439903E0
1.609901771E0,4.153761387E0,8.664242744E0,-2.231300116E0
1.614742813E0,5.142523766E0,8.420044899E0,-8.499050736E-1
1.619583802E0,5.664437294E0,8.285976410E0,3.974204063E-1
1.624424010E0,6.148045540E0,8.058536530E0,1.752480268E0
1.629264219E0,6.756146431E0,7.574928284E0,3.248791933E0
1.634105260E0,7.352277279E0,7.158355713E0,4.352471352E0
1.638946302E0,7.900526047E0,7.302000999E0,5.247864723E0
1.643786510E0,8.125571251E0,7.606051445E0,5.901453495E0
1.648626719E0,7.850249767E0,7.783215046E0,5.745837212E0
1.653467760E0,7.364247322E0,7.792791367E0,5.070701122E0
1.658308802E0,6.935704231E0,7.448040962E0,4.522452354E0
1.663149010E0,6.124104500E0,6.926127434E0,4.151367188E0
1.667989219E0,5.063519001E0,6.365908623E0,3.571995258E0
1.672830260E0,4.503299713E0,5.717107773E0,2.803489685E0
1.677671250E0,4.421900272E0,4.991695881E0,2.058924913E0
1.682511510E0,5.077883720E0,4.297407627E0,1.455611944E0
1.687351719E0,5.855965614E0,3.761129141E0,1.163532019E0
