"Time (s)","X (rad/s)","Y (rad/s)","Z (rad/s)"
1.130300004E-2,4.390270114E-1,-1.115126312E-1,2.164775506E-2
2.134899993E-2,2.665029168E-1,-2.039311081E-2,5.585952103E-2
3.139599995E-2,8.150764555E-2,1.838139631E-2,5.722054839E-2
4.144199996E-2,-7.476904243E-2,1.436668262E-2,4.330712929E-2
5.148899998E-2,-1.955828071E-1,-3.410986811E-2,4.350182414E-2
6.153599999E-2,-2.810665667E-1,-8.985862136E-2,5.391877890E-2
7.158200000E-2,-3.374089003E-1,-1.157627329E-1,6.603426486E-2
8.162900002E-2,-3.892513216E-1,-1.215777472E-1,8.567720652E-2
9.167599992E-2,-4.212424457E-1,-7.808114588E-2,1.066315472E-1
1.017219999E-1,-4.089783430E-1,-1.045816578E-2,1.198126003E-1
1.117690000E-1,-3.435971737E-1,3.191684932E-2,1.363267452E-1
1.218150000E-1,-2.581411302E-1,8.478672057E-2,1.660771817E-1
1.318620000E-1,-1.653258502E-1,1.298867464E-1,1.988441497E-1
1.419090000E-1,-5.685690045E-2,1.507368982E-1,2.260688394E-1
1.519550000E-1,1.168566011E-2,1.051918864E-1,2.345459163E-1
1.620020000E-1,8.283786476E-2,1.090923548E-1,2.084253579E-1
1.720480000E-1,1.906594336E-1,1.024539322E-1,2.171915770E-1
1.820949999E-1,3.315137327E-1,1.872377992E-1,2.666454017E-1
1.921420000E-1,3.895769119E-1,2.395558059E-1,2.875075042E-1
2.021880000E-1,3.258687854E-1,3.265751302E-1,2.927829623E-1
2.122350000E-1,2.285339683E-1,4.763284624E-1,3.099217415E-1
2.222810000E-1,1.449996531E-1,6.891858578E-1,3.278829157E-1
2.323280000E-1,1.063636988E-1,7.928133607E-1,3.505354524E-1
2.423750000E-1,1.030134410E-1,7.057642341E-1,3.900884688E-1
2.524209999E-1,1.114594191E-1,6.127145290E-1,4.260526299E-1
2.624679999E-1,1.252790987E-1,5.834450126E-1,4.389822781E-1
2.725150000E-1,1.297582388E-1,5.642843246E-1,4.197596014E-1
2.825610000E-1,1.207165346E-1,5.767396688E-1,3.982478976E-1
2.926080000E-1,7.734762877E-2,6.119766831E-1,4.051170945E-1
3.026540000E-1,-5.177071318E-3,6.746869683E-1,4.448264241E-1
3.127010000E-1,-8.893854916E-2,7.698283792E-1,4.660419524E-1
3.227480000E-1,-1.369803697E-1,9.234086275E-1,4.338619113E-1
3.327939999E-1,-1.579386443E-1,1.189394474E0,3.803129494E-1
3.428409999E-1,-1.746702194E-1,1.563157439E0,3.532133996E-1
3.528870000E-1,-2.065890133E-1,1.940420389E0,3.761599064E-1
3.629340000E-1,-2.513208091E-1,2.332350016E0,4.539324939E-1
3.729810000E-1,-3.061731160E-1,2.638558388E0,5.095147491E-1
3.830270000E-1,-3.652279377E-1,2.341538191E0,4.385457635E-1
3.930740000E-1,-4.207358062E-1,2.238674402E0,3.599527776E-1
4.031200000E-1,-4.486694336E-1,2.184882164E0,2.348476052E-1
4.131669999E-1,-4.255763590E-1,2.057614803E0,1.030040085E-1
4.232140000E-1,-6.553969979E-1,1.980459929E0,-1.394790970E-2
4.332600000E-1,-1.020905256E0,2.067498684E0,-8.934135735E-2
4.433070000E-1,-1.379154682E0,2.079443216E0,-7.088884711E-2
4.533530000E-1,-1.695925713E0,2.245546579E0,1.427180879E-2
4.634014167E-1,-1.882787943E0,2.538347721E0,1.214379445E-1
4.734484167E-1,-1.772264719E0,2.227952719E0,2.669755518E-1
4.834944167E-1,-1.195565343E0,8.852925897E-1,4.943785965E-1
4.935414166E-1,-9.212595820E-1,1.596233010E0,8.025508523E-1
5.035874166E-1,-7.531329393E-1,2.633339167E0,1.075538754E0
5.136344166E-1,-6.657084227E-1,2.745384693E0,1.250108480E0
5.236814166E-1,-7.257413864E-1,1.933912635E0,8.814669847E-1
5.337274167E-1,-8.244590163E-1,9.350614548E-1,4.045144320E-1
5.437744167E-1,-7.751647234E-1,3.203125596E-1,-2.408821434E-1
5.538204167E-1,-6.618745327E-1,-6.857898552E-3,-7.496565580E-1
5.638674167E-1,-4.183968604E-1,1.001002416E-1,-8.127633333E-1
5.739144166E-1,-2.282639593E-1,9.924823046E-1,-4.325471818E-1
5.839604166E-1,-1.566502303E-1,1.146866322E0,-1.387480497E-1
5.940074166E-1,-1.473375559E-1,9.743543863E-1,1.748472080E-2
6.040534166E-1,-1.995421648E-1,7.116327286E-1,8.092680573E-2
6.141004167E-1,-2.068557292E-1,3.291426599E-1,-4.341205955E-2
6.241474167E-1,-2.616878450E-1,9.141664207E-2,-2.751499414E-1
6.341934167E-1,-4.324740469E-1,2.022821903E-1,-5.835680366E-1
6.442404167E-1,-6.307908893E-1,4.681205451E-1,-8.477346897E-1
6.542864166E-1,-7.852322459E-1,7.109799981E-1,-9.961814284E-1
6.643334166E-1,-8.971478343E-1,9.681572318E-1,-1.066887140E0
6.743804166E-1,-1.086925745E0,1.301150441E0,-1.180297732E0
6.844264166E-1,-1.349118948E0,1.732719183E0,-1.330635548E0
6.944734167E-1,-1.631918550E0,2.123437643E0,-1.547596812E0
7.045194167E-1,-1.760734320E0,2.153314590E0,-1.869883776E0
7.145664167E-1,-1.684343457E0,2.137030363E0,-2.136615992E0
7.246134166E-1,-1.529772997E0,2.155838966E0,-2.119620562E0
7.346594166E-1,-1.366833091E0,2.168369770E0,-2.018119097E0
7.447064166E-1,-1.315797567E0,2.096222878E0,-2.018562078E0
7.547524166E-1,-1.384523273E0,2.010866880E0,-2.250049829E0
7.647994166E-1,-1.490290999E0,2.084942102E0,-2.691515207E0
7.748464167E-1,-1.537744641E0,2.158136845E0,-3.157662868E0
7.848924167E-1,-1.519062519E0,2.061014175E0,-3.467125416E0
7.949394167E-1,-1.493520737E0,1.855779529E0,-3.516018152E0
8.049854167E-1,-1.429395556E0,1.647317410E0,-3.423010349E0
8.150324166E-1,-1.260407448E0,1.550481081E0,-3.363072157E0
8.250794166E-1,-1.035193801E0,1.618131518E0,-3.398133755E0
8.351254166E-1,-8.778638244E-1,1.823040128E0,-3.549502134E0
8.451724167E-1,-8.843774199E-1,2.033575058E0,-3.742021084E0
8.552184167E-1,-1.056042075E0,2.150019646E0,-3.928892374E0
8.652654167E-1,-1.286060095E0,2.133607149E0,-4.001440048E0
8.753124167E-1,-1.499869704E0,1.889256716E0,-3.880420923E0
8.853584166E-1,-1.698453903E0,1.465597034E0,-3.594158649E0
8.954054166E-1,-1.873464346E0,9.995808601E-1,-3.174759626E0
9.054514166E-1,-1.993985772E0,7.087288499E-1,-2.647714376E0
9.154984166E-1,-2.079701185E0,5.550760031E-1,-2.154567957E0
9.255454167E-1,-2.149999142E0,5.139983296E-1,-1.876922965E0
9.355914167E-1,-2.240024805E0,6.636269093E-1,-1.843471527E0
9.456384167E-1,-2.363360882E0,1.000779033E0,-1.935094833E0
9.556844167E-1,-2.447503328E0,1.284545660E0,-1.999833226E0
9.657314166E-1,-2.436244249E0,1.448032141E0,-1.846929908E0
9.757784166E-1,-2.382702589E0,1.542383909E0,-1.390193820E0
9.858244166E-1,-2.335550547E0,1.489373684E0,-7.705028653E-1
9.958714166E-1,-2.338448524E0,1.330563784E0,-1.173126921E-1
1.005917417E0,-2.325062037E0,1.346115589E0,4.782374799E-1
1.015964417E0,-2.201132059E0,1.473617435E0,9.511787891E-1
1.026011417E0,-2.000751972E0,1.542245269E0,1.208555222E0
1.036057417E0,-1.859799862E0,1.654324055E0,1.325303435E0
1.046104417E0,-1.797250152E0,1.639098763E0,1.441026211E0
1.056150417E0,-1.810445666E0,1.387399197E0,1.633117557E0
1.066197417E0,-1.881321430E0,1.004230261E0,1.860122204E0
1.076244417E0,-1.913848758E0,6.877306700E-1,1.978719831E0
1.086290417E0,-1.837127924E0,4.212478399E-1,1.938656926E0
1.096337417E0,-1.610116959E0,2.723409534E-1,1.806930780E0
1.106383417E0,-1.261515260E0,2.103257924E-1,1.677698731E0
1.116430417E0,-8.961209655E-1,2.016315609E-1,1.594906926E0
1.126477417E0,-4.644915462E-1,3.217561245E-1,1.491446495E0
1.136523417E0,4.902544618E-2,5.965713263E-1,1.354093194E0
1.146570417E0,4.909274876E-1,8.998667598E-1,1.211967468E0
1.156616417E0,7.536383271E-1,1.068151593E0,1.089264393E0
1.166663417E0,7.970092297E-1,1.091453433E0,9.436672330E-1
1.176710417E0,7.888978124E-1,9.808887839E-1,7.768917680E-1
1.186756417E0,7.368801236E-1,7.693637609E-1,7.165431976E-1
1.196803417E0,5.216872692E-1,4.197109342E-1,7.304242253E-1
1.206849417E0,4.467898607E-1,-1.277681440E-1,8.237158060E-1
1.216896417E0,2.981202304E-1,-6.611071229E-1,1.023040295E0
1.226943417E0,-3.227075189E-2,-1.103246093E0,1.021720529E0
1.236989417E0,-1.711821556E-1,-1.224319100E0,8.220236897E-1
1.247036417E0,-1.813674271E-1,-1.054963350E0,5.689663887E-1
1.257082417E0,-2.640886903E-1,-6.219493747E-1,3.613114059E-1
1.267129417E0,-4.086911380E-1,-3.191498518E-1,3.051490486E-1
1.277176417E0,-5.815770030E-1,-2.968842983E-1,3.482262194E-1
1.287222417E0,-6.438004375E-1,-3.799957037E-1,3.236817420E-1
1.297269417E0,-5.441870093E-1,-5.291215181E-1,2.081520855E-1
1.307315417E0,-4.305137396E-1,-7.426846623E-1,2.495855652E-2
1.317362417E0,-1.657323986E-1,-1.171116114E0,-2.034963369E-1
1.327409417E0,-9.920891523E-1,-1.262318969E0,-5.539789796E-1
1.337455417E0,-6.552067399E-1,-1.723039389E0,-9.454635382E-1
1.347502417E0,-3.648678660E-1,-1.302513719E0,-9.673470259E-1
1.357548417E0,-6.286927462E-1,-1.050380230E0,-1.100521088E0
1.367595417E0,-7.959136963E-1,-7.857858539E-1,-1.283108234E0
1.377642417E0,-8.833836913E-1,-4.582273960E-1,-1.462648392E0
1.387688417E0,-8.513399959E-1,-2.470248640E-1,-1.832015276E0
1.397735417E0,-6.953710318E-1,-2.070695013E-1,-2.374815226E0
1.407782417E0,-6.769672632E-1,-3.889442086E-1,-2.837037325E0
1.417828417E0,-8.267563581E-1,-4.685092866E-1,-2.980585814E0
1.427875417E0,-1.171573520E0,-3.251089752E-1,-2.823143244E0
1.437921417E0,-1.433678269E0,2.824722826E-1,-2.819722414E0
1.447968417E0,-1.497889042E0,1.046112895E0,-2.910637617E0
1.458015417E0,-1.261476517E0,1.287523150E0,-3.197814703E0
1.468061292E0,-7.083429098E-1,1.013528109E0,-3.452487469E0
1.478108292E0,-2.366865724E-1,7.013928294E-1,-3.098470926E0
1.488154292E0,1.448293626E-1,5.094667673E-1,-2.497901201E0
1.498201292E0,3.261510432E-1,2.986062765E-1,-1.937483549E0
1.508248292E0,2.134729773E-1,1.339478344E-1,-1.451695800E0
1.518294292E0,-6.405210495E-2,9.940607846E-2,-1.032691360E0
1.528341292E0,-3.466124237E-1,1.876363307E-1,-7.665935755E-1
1.538387292E0,-5.600169301E-1,3.448343277E-1,-6.340124607E-1
1.548434292E0,-6.045101285E-1,5.461945534E-1,-5.366174579E-1
1.558481292E0,-3.724331260E-1,3.090279400E-1,-5.842279196E-1
1.568527292E0,1.683427840E-1,-2.791324854E-1,-8.971770406E-1
1.578574292E0,4.908111393E-1,-3.202561140E-1,-1.426967740E0
1.588620292E0,5.049511790E-1,6.286437809E-2,-1.839330316E0
1.598667292E0,2.954636216E-1,3.789529502E-1,-1.923656583E0
1.608714292E0,4.428225383E-2,4.055305123E-1,-1.807188869E0
1.618760292E0,-9.846925735E-3,-8.334450540E-4,-1.306507468E0
1.628807292E0,-1.624844074E-1,-3.464600444E-2,-1.321507931E0
1.638853292E0,-3.202422261E-1,7.833407819E-2,-1.079023838E0
1.648900292E0,-4.979365766E-1,3.770888224E-2,-8.291850090E-1
1.658947292E0,-6.801171899E-1,-1.292596459E-1,-6.313607693E-1
1.668993292E0,-7.616679668E-1,-1.971430928E-1,-3.257033825E-1
1.679040292E0,-6.711923480E-1,-1.842756271E-1,1.339663863E-1
1.689087292E0,-4.241625965E-1,-3.004509807E-1,3.269009590E-1
1.699133292E0,-2.560817003E-1,-4.287921488E-1,2.625601888E-1
1.709180292E0,-2.168781012E-1,-3.925395906E-1,1.591608375E-1
1.719226292E0,-2.221373171E-1,-2.872600853E-1,3.052311204E-2
1.729273292E0,-2.135667354E-1,-2.872291803E-1,-1.128513590E-1
1.739320292E0,-2.096885145E-1,-4.329773486E-1,-3.253252804E-1
1.749366292E0,-2.839472890E-1,-6.630510092E-1,-5.579460263E-1
1.759413292E0,-4.148684442E-1,-9.054670930E-1,-8.395506144E-1
1.769459292E0,-5.333383679E-1,-1.127600908E0,-1.154710650E0
1.779506292E0,-6.014038324E-1,-1.125874639E0,-1.403948665E0
1.789553292E0,-5.549942255E-1,-8.315804601E-1,-1.563688040E0
1.799599292E0,-3.829489946E-1,-6.156578660E-1,-1.423033476E0
1.809646292E0,-1.276669055E-1,-5.596742034E-1,-1.110261679E0
1.819692292E0,-3.067830019E-2,-4.487804174E-1,-9.876482487E-1
1.829739292E0,-3.355205059E-1,1.527837366E-1,-1.524158716E0
1.839786292E0,-5.966254473E-1,5.779066086E-1,-1.936181664E0
1.849832292E0,-6.239439249E-1,5.807197094E-1,-2.085891008E0
1.859879292E0,-5.535837412E-1,3.718207479E-1,-2.026912451E0
1.869925292E0,-4.348176420E-1,1.483610421E-1,-1.903759003E0
1.879972292E0,-3.184549510E-1,3.975316882E-2,-1.837052107E0
1.890019292E0,-3.699005544E-1,-1.751737893E-1,-1.847444296E0
1.900065292E0,-5.698828697E-1,-4.788764417E-1,-1.996692896E0
1.910112292E0,-7.792717814E-1,-6.575375795E-1,-2.200566769E0
1.920158292E0,-9.027464986E-1,-6.417492032E-1,-2.376986027E0
1.930205292E0,-8.337647319E-1,-3.892314434E-1,-2.487409353E0
1.940252292E0,-7.355207801E-1,-1.329471469E-1,-2.606089354E0
1.950298292E0,-5.807463527E-1,3.290359676E-2,-2.690864801E0
1.960345292E0,-3.273036778E-1,-6.475440413E-2,-2.668611050E0
1.970392292E0,-2.123555392E-1,-1.381657720E-1,-2.767462015E0
1.980438292E0,-3.065964282E-1,1.204381883E-1,-3.059091330E0
1.990485292E0,-4.262495935E-1,4.226118922E-1,-3.195432663E0
2.000531292E0,-5.432178974E-1,7.864015102E-1,-3.070480585E0
2.010578292E0,-2.634423971E-1,6.032247543E-1,-2.832748652E0
2.020625292E0,-2.889794856E-2,1.777876318E-1,-2.671796322E0
2.030671292E0,2.181560397E-1,-3.479094207E-1,-2.625864983E0
2.040718292E0,6.221782789E-2,-8.964928389E-1,-2.367839098E0
2.050764292E0,-3.242704868E-1,-1.111825228E0,-2.075958252E0
2.060811292E0,-4.150818884E-1,-9.111532569E-1,-1.907795429E0
2.070858292E0,-6.176698804E-1,-1.102448031E-1,-1.770150661E0
2.080904292E0,-8.404579759E-1,4.783531427E-1,-1.497407675E0
2.090951292E0,-9.656792879E-1,5.994713306E-1,-1.198925614E0
2.100997292E0,-1.028557777E0,3.945794404E-1,-9.385247827E-1
2.111044292E0,-9.654309750E-1,5.494864658E-2,-7.792400122E-1
2.121091292E0,-7.771458030E-1,-2.427471727E-1,-6.715797782E-1
2.131137292E0,-5.915599465E-1,-4.354234040E-1,-5.592567325E-1
2.141184292E0,-4.109638333E-1,-5.553750396E-1,-4.398087263E-1
2.151231292E0,-2.904747128E-1,-6.219969392E-1,-2.699568570E-1
2.161277292E0,-1.978370547E-1,-5.853969455E-1,-9.825266898E-2
2.171324292E0,-1.029715315E-1,-4.697991908E-1,3.598582000E-2
2.181370292E0,-7.933917642E-2,-2.738797665E-1,1.269069463E-1
2.191417292E0,-1.253883634E-2,-1.605484039E-1,1.743972301E-1
2.201464292E0,7.717095315E-2,-1.286613047E-1,1.711154282E-1
2.211510292E0,1.228063479E-1,-8.373378217E-2,1.084901243E-1
2.221557292E0,1.159320623E-1,-1.565638930E-2,6.746603549E-2
2.231603292E0,1.620020866E-1,6.104105338E-2,3.135996312E-2
2.241650292E0,2.499836087E-1,1.138850674E-1,-3.891161643E-3
2.251697292E0,3.544985354E-1,1.309300959E-1,-3.357288986E-2
2.261743292E0,3.791450560E-1,1.863251477E-1,-3.808394819E-2
2.271790292E0,3.779237270E-1,1.992393434E-1,-2.507467195E-2
2.281836292E0,3.949819505E-1,1.614828259E-1,4.392432049E-3
2.291883292E0,3.683929443E-1,1.169835329E-1,2.007472329E-2
2.301930292E0,2.507590652E-1,6.925947964E-2,5.548194423E-2
2.311976292E0,2.224773616E-1,-1.862004399E-2,1.180182919E-1
2.322023292E0,2.563940287E-1,-8.408123255E-2,1.552941799E-1
2.332070292E0,2.486567348E-1,-9.531817585E-2,1.797981858E-1
2.342116292E0,2.397773266E-1,-1.029520258E-1,2.176635563E-1
2.352163292E0,2.524696887E-1,-1.648319066E-1,2.739641070E-1
2.362209292E0,2.200668603E-1,-2.257447839E-1,3.406849802E-1
2.372256292E0,1.199655533E-1,-3.670832813E-1,4.334804118E-1
2.382303292E0,8.433720469E-2,-5.302414894E-1,5.359541774E-1
2.392349292E0,-1.369634867E-1,-4.294980764E-1,2.845043838E-1
2.402396292E0,-4.093367457E-1,-9.709328413E-2,1.807321329E-3
2.412442292E0,-5.129574537E-1,1.415821463E-1,-1.513068527E-1
2.422489292E0,-4.564110339E-1,2.525936365E-1,-2.172612697E-1
2.432536292E0,-2.568118870E-1,3.481731415E-1,-1.991267502E-1
2.442582292E0,3.692321852E-2,3.979567587E-1,-1.505366266E-1
2.452629292E0,2.992131710E-1,1.705236137E-1,-7.492175698E-2
2.462676375E0,4.253539443E-1,-1.239515319E-1,7.746227086E-3
2.472722375E0,3.926354051E-1,-2.287570387E-1,5.339919776E-2
2.482769375E0,2.577957511E-1,-1.872460246E-1,8.204950392E-2
2.492815375E0,1.182993501E-1,-1.392891556E-1,9.356474876E-2
2.502862375E0,-2.060435712E-3,-1.277370453E-1,6.018061936E-2
2.512909375E0,-9.092372656E-2,-1.243063658E-1,1.888777316E-2
2.522955375E0,-1.300230175E-1,-1.461342275E-1,1.607897505E-2
2.533002375E0,-1.401877701E-1,-2.033690214E-1,1.823613420E-2
2.543048375E0,-1.251578778E-1,-2.546940446E-1,4.369903356E-2
2.553095375E0,-1.106665656E-1,-3.043031394E-1,5.754773691E-2
2.563142375E0,-8.854358643E-2,-4.026268423E-1,5.391809344E-2
2.573188375E0,-2.480028756E-2,-4.188353717E-1,5.400091782E-2
2.583235375E0,-1.721432060E-2,-3.833905458E-1,2.381243184E-2
2.593282375E0,-3.303163126E-2,-3.936770260E-1,4.308505449E-3
2.603328375E0,-4.864675924E-2,-3.869508803E-1,-5.108566489E-3
2.613375375E0,-6.183339655E-2,-3.744249642E-1,-2.507987805E-2
2.623421375E0,-7.634853572E-2,-3.582236469E-1,-3.121355549E-2
2.633468375E0,-7.867054641E-2,-3.375641704E-1,-3.170837089E-2
2.643515375E0,-7.935572416E-2,-3.180690706E-1,-3.351210803E-2
2.653561375E0,-8.924484253E-2,-2.950638831E-1,-3.504289314E-2
2.663608375E0,-9.337940067E-2,-2.695777118E-1,-3.383328766E-2
2.673654375E0,-9.302200377E-2,-2.369869947E-1,-2.709975280E-2
2.683701375E0,-9.468168765E-2,-1.972118914E-1,-1.247526892E-2
2.693748375E0,-9.590833634E-2,-1.521091312E-1,2.028374001E-5
2.703794375E0,-9.374020249E-2,-1.110143661E-1,6.286567543E-3
2.713841375E0,-8.279753476E-2,-7.601058483E-2,1.077505946E-2
2.723888375E0,-7.635273784E-2,-4.315990955E-2,1.173111238E-2
2.733934375E0,-6.198551506E-2,3.553531133E-3,4.916615319E-3
2.743981375E0,-5.124961957E-2,5.059503391E-2,-3.670571838E-3
2.754027375E0,-3.407862410E-2,1.032446623E-1,-1.554693840E-2
2.764074375E0,-1.954714023E-2,1.494603157E-1,-2.573499456E-2
2.774121375E0,-8.670790121E-3,1.746476889E-1,-3.243710473E-2
2.784167375E0,-1.710895449E-4,1.824263483E-1,-3.871455789E-2
2.794214375E0,3.844158258E-3,1.823232919E-1,-3.994254023E-2
2.804260375E0,4.303185269E-4,1.714853942E-1,-3.500127047E-2
2.814307375E0,-5.877378862E-3,1.649886221E-1,-3.061051853E-2
2.824354375E0,-1.221854053E-2,1.401430666E-1,-2.739521116E-2
2.834400375E0,-1.362202689E-2,1.058788523E-1,-2.733156085E-2
2.844447375E0,-1.023167837E-2,7.911764830E-2,-2.934934199E-2
2.854494375E0,-4.832918756E-3,5.461842939E-2,-2.721135691E-2
2.864540375E0,2.400914673E-4,5.349857733E-2,-2.768562734E-2
2.874587375E0,1.136438176E-2,5.789678916E-2,-2.482458949E-2
2.884633375E0,1.547323912E-2,7.847055793E-2,-2.140037529E-2
2.894680375E0,1.835850812E-2,9.762108326E-2,-1.947917230E-2
2.904727375E0,1.278584637E-2,1.153980419E-1,-1.211914886E-2
2.914773375E0,5.179592874E-3,1.305977702E-1,-4.247910343E-3
2.924820375E0,-3.806736786E-3,1.277452260E-1,1.491433475E-3
2.934866375E0,-1.378639974E-2,1.120599955E-1,2.150299493E-3
2.944913375E0,-2.134810202E-2,9.229427576E-2,2.187648788E-4
2.954960375E0,-2.383043431E-2,7.796966285E-2,-6.981613114E-4
2.965006375E0,-2.581770718E-2,7.337603718E-2,-4.531706683E-3
2.975053375E0,-2.474978007E-2,7.179624587E-2,-7.753332146E-3
2.985099375E0,-1.739808917E-2,7.904590666E-2,-1.171948016E-2
2.995146375E0,-5.432507955E-3,9.785102308E-2,-1.205929928E-2
3.005193375E0,2.035439247E-3,1.254144162E-1,-1.318711042E-2
3.015239375E0,2.208531462E-2,1.462198347E-1,-1.005523279E-2
3.025286375E0,2.814443782E-2,1.554599851E-1,-7.427473087E-3
3.035333375E0,3.956940025E-2,1.531643420E-1,-4.618637729E-3
3.045379375E0,4.763476178E-2,1.320543140E-1,-4.491262138E-3
3.055426375E0,4.682462662E-2,1.154915839E-1,-5.985200405E-4
3.065472375E0,4.654651508E-2,9.345232695E-2,-4.952046089E-3
3.075519375E0,4.282075167E-2,6.692351401E-2,-7.721200585E-3
3.085566375E0,3.559353575E-2,3.849874064E-2,-7.976448163E-3
3.095612375E0,2.498483285E-2,6.700595841E-3,-6.240866147E-3
3.105659375E0,1.926306263E-2,-2.694604173E-2,-3.279599827E-3
3.115705375E0,9.630141780E-3,-5.044204742E-2,-3.617022652E-3
3.125752375E0,3.371469444E-3,-6.889593601E-2,-1.576052513E-3
3.135799375E0,-2.255523577E-3,-8.200161904E-2,-1.135831699E-3
3.145845375E0,-6.723287050E-3,-9.663479030E-2,-4.019084387E-3
3.155892375E0,-4.636699799E-3,-1.180857569E-1,-4.887274466E-3
3.165939375E0,-3.579014447E-3,-1.348169595E-1,-5.166012794E-3
3.175985375E0,-6.916467100E-6,-1.462594867E-1,-4.938844591E-3
3.186032375E0,5.741463043E-3,-1.624165773E-1,-3.075452521E-3
3.196078375E0,7.868263870E-3,-1.750945598E-1,-3.301555291E-3
3.206125375E0,1.461438090E-2,-1.787713021E-1,-5.181286484E-3
3.216172375E0,1.504687779E-2,-1.766189337E-1,-9.032216854E-3
3.226218375E0,1.268606447E-2,-1.666976064E-1,-1.003084518E-2
3.236265375E0,9.393331595E-3,-1.601171941E-1,-8.561580442E-3
3.246311375E0,8.644306101E-3,-1.586211324E-1,-9.270342067E-3
3.256358375E0,1.468152273E-3,-1.528860182E-1,-1.046157442E-2
3.266405375E0,-2.624304965E-3,-1.404786855E-1,-7.982513867E-3
3.276451375E0,-2.051991411E-3,-1.253663003E-1,-1.406636555E-3
3.286498375E0,-7.081914693E-3,-1.088422462E-1,2.844395116E-3
3.296544375E0,-1.042764354E-2,-9.218923002E-2,1.046476420E-2
3.306591375E0,-1.550620329E-2,-6.686943769E-2,1.196062472E-2
3.316638375E0,-1.489900332E-2,-4.119922593E-2,7.340572774E-3
