"Time (s)","X (m/s^2)","Y (m/s^2)","Z (m/s^2)"
0.000000000E0,-4.226610718E0,-9.023385773E0,-3.666026459E0
9.939000010E-3,-3.917353821E0,-9.980345764E0,-2.613565063E0
1.987800002E-2,-3.636088715E0,-1.079120956E1,-1.430275726E0
2.981700003E-2,-3.445534973E0,-1.148920807E1,7.753875732E-2
3.975500003E-2,-3.077899475E0,-1.225007584E1,1.670675812E0
4.969400004E-2,-2.402503967E0,-1.278177017E1,2.496957550E0
5.963300006E-2,-1.793420563E0,-1.282996994E1,2.664908295E0
6.957200007E-2,-1.427132263E0,-1.214978439E1,2.172582092E0
7.951000007E-2,-1.329834595E0,-1.126287872E1,1.438508606E0
8.944900008E-2,-9.406439209E-1,-1.071950867E1,7.661068726E-1
9.938800009E-2,-4.893324280E-1,-1.041923309E1,-1.347198486E-2
1.093270001E-1,-1.758842468E-1,-9.907297668E0,-3.583547974E-1
1.192650001E-1,1.182540894E-1,-9.213490448E0,8.532257080E-3
1.292040001E-1,2.077679443E-1,-8.557554474E0,5.044509888E-1
1.391430001E-1,1.073268127E-1,-7.861950989E0,7.622149658E-1
1.490819999E-1,-3.088078308E-1,-6.940916290E0,6.134243774E-1
1.590199999E-1,-9.580078125E-1,-5.984555054E0,2.353106689E-1
1.689589999E-1,-1.781146088E0,-5.219196625E0,4.161346436E-2
1.788979999E-1,-2.817590790E0,-4.589755554E0,-5.019062805E-1
1.888369999E-1,-3.791615295E0,-4.506828003E0,-8.360115051E-1
1.987759999E-1,-4.598287811E0,-4.890629883E0,-8.232879639E-1
2.087139999E-1,-5.245392151E0,-5.241051178E0,-1.113983459E0
2.186530000E-1,-5.586083679E0,-5.551655273E0,-1.649120636E0
2.285920000E-1,-5.545667725E0,-5.650898895E0,-2.227517853E0
2.385310000E-1,-5.172493744E0,-5.483846283E0,-2.660267944E0
2.484690000E-1,-4.489464111E0,-5.067861328E0,-2.799927521E0
2.584080000E-1,-3.765419769E0,-4.386927338E0,-2.776276703E0
2.683470000E-1,-3.027304688E0,-3.711082764E0,-2.324815521E0
2.782860000E-1,-2.205513611E0,-3.185825043E0,-1.828896790E0
2.882240000E-1,-1.383572845E0,-3.043920135E0,-1.200653229E0
2.981630000E-1,-7.183561707E-1,-3.051853638E0,-6.923103333E-1
3.081020000E-1,-2.874023438E-1,-3.103945312E0,-8.104147339E-1
3.180410000E-1,-2.652484131E-1,-3.760030975E0,-1.761087799E0
3.279800001E-1,-9.828561401E-1,-4.997956696E0,-4.201163635E0
3.379180001E-1,-2.492167511E0,-6.536756744E0,-7.754324799E0
3.478570001E-1,-4.450545044E0,-8.402027893E0,-1.038255936E1
3.577960001E-1,-7.148534546E0,-9.767488403E0,-1.101110229E1
3.677350001E-1,-1.058164536E1,-1.046473846E1,-9.696685638E0
3.776730001E-1,-1.335762268E1,-1.249661316E1,-9.305698700E0
3.876120001E-1,-1.365146164E1,-1.525238251E1,-9.322314148E0
3.975510001E-1,-1.130554001E1,-1.665975586E1,-8.694220276E0
4.074900001E-1,-9.176517334E0,-1.532378403E1,-7.255561981E0
4.174279999E-1,-8.119116211E0,-1.434452042E1,-5.093907166E0
4.273669999E-1,-7.425458679E0,-1.534279449E1,-2.766996002E0
4.373059999E-1,-7.045997772E0,-1.720402405E1,-1.296603699E0
4.472449999E-1,-6.711742859E0,-1.854583374E1,-7.330256653E-1
4.571839999E-1,-6.198160858E0,-1.838222397E1,-8.015830994E-1
4.671219999E-1,-4.882397003E0,-1.584485046E1,-1.244362335E0
4.770610000E-1,-2.670596466E0,-1.189770859E1,-2.948867798E-2
4.870000000E-1,-4.004173279E-1,-8.323890381E0,1.983225861E0
4.969390000E-1,1.091829529E0,-6.071973267E0,3.483555908E0
5.068770000E-1,1.560953979E0,-5.208269348E0,3.717070312E0
5.168160000E-1,1.160237274E0,-5.229824524E0,3.041824493E0
5.267550000E-1,4.745132446E-1,-5.780828705E0,2.449655914E0
5.366940000E-1,-3.785627747E-1,-7.319179688E0,2.202819214E0
5.466320000E-1,-1.193917236E0,-8.905880127E0,2.265239410E0
5.565710000E-1,-1.846859436E0,-9.842931519E0,2.158211975E0
5.665100000E-1,-2.226020966E0,-1.006836273E1,1.945504303E0
5.764490000E-1,-2.448608093E0,-9.742340698E0,1.663341064E0
5.863870000E-1,-2.731669464E0,-9.314530334E0,1.411414948E0
5.963260001E-1,-3.141068115E0,-9.051227875E0,1.213676147E0
6.062650001E-1,-3.525917816E0,-8.820707245E0,1.208287354E0
6.162040001E-1,-4.146976318E0,-8.658444672E0,1.176403656E0
6.261420001E-1,-5.163213043E0,-8.733588409E0,1.328188019E0
6.360810001E-1,-6.295009460E0,-8.724307709E0,1.334474945E0
6.460200001E-1,-6.735842743E0,-8.440198517E0,9.871971130E-1
6.559590001E-1,-6.366860046E0,-8.071215820E0,2.121089172E-1
6.658980001E-1,-5.836961975E0,-7.908803558E0,-5.569917297E-1
6.758360001E-1,-5.478158112E0,-7.887996826E0,-1.022074585E0
6.857749999E-1,-5.267995148E0,-7.894882507E0,-1.356179810E0
6.957139999E-1,-5.141208801E0,-7.855664063E0,-1.877096558E0
7.056529999E-1,-5.181475067E0,-7.797435150E0,-2.255809021E0
7.155909999E-1,-5.294939117E0,-7.632627869E0,-2.406395874E0
7.255299999E-1,-5.436544647E0,-7.500003662E0,-2.407294006E0
7.354689999E-1,-5.501509552E0,-7.378306732E0,-2.243235168E0
7.454080000E-1,-5.424719238E0,-7.313940582E0,-1.806293793E0
7.553460000E-1,-5.303321686E0,-7.470964050E0,-1.177900543E0
7.652850000E-1,-5.255271606E0,-7.708819427E0,-6.270460510E-1
7.752240000E-1,-5.246739349E0,-7.736362152E0,-1.989363098E-1
7.851630000E-1,-5.247487793E0,-7.478298798E0,5.703140259E-2
7.951010000E-1,-5.322930908E0,-7.084018707E0,1.773811340E-1
8.050400000E-1,-5.350323944E0,-6.846462708E0,2.647993469E-1
8.149792501E-1,-5.230722656E0,-6.687343597E0,3.779640198E-1
8.249182501E-1,-4.966522064E0,-6.511459351E0,4.875361633E-1
8.348572501E-1,-4.594395905E0,-6.302344208E0,5.819897461E-1
8.447952501E-1,-4.188440094E0,-6.450386353E0,7.399113464E-1
8.547342501E-1,-3.969146118E0,-6.990014191E0,8.596623230E-1
8.646732501E-1,-3.919299774E0,-7.621999969E0,7.232958984E-1
8.746122499E-1,-3.884721680E0,-8.303233337E0,7.072792053E-1
8.845502499E-1,-3.834575958E0,-9.085506592E0,1.036893768E0
8.944892499E-1,-3.756588135E0,-1.044857208E1,1.550924835E0
9.044282499E-1,-3.887116699E0,-1.198318085E1,1.973496094E0
9.143672499E-1,-4.061953125E0,-1.317350555E1,2.190095673E0
9.243052499E-1,-4.246669006E0,-1.378618149E1,2.226619720E0
9.342442499E-1,-4.456532593E0,-1.390069336E1,1.876647491E0
9.441832500E-1,-4.644242249E0,-1.350416794E1,1.304237823E0
9.541222500E-1,-4.743934937E0,-1.304821609E1,8.640032959E-1
9.640602500E-1,-4.969216461E0,-1.225501556E1,5.113366699E-1
9.739992500E-1,-5.426964569E0,-1.139475449E1,-3.023712158E-2
9.839382500E-1,-6.219117279E0,-1.082054855E1,-6.500981140E-1
9.938772500E-1,-6.833888855E0,-1.054063065E1,-1.158141632E0
1.003816250E0,-7.035220184E0,-1.046369064E1,-1.608405304E0
1.013754250E0,-6.835834808E0,-1.042462189E1,-2.015858002E0
1.023693250E0,-6.384074249E0,-1.035112473E1,-2.437531128E0
1.033632250E0,-5.829028473E0,-1.028436356E1,-3.127296753E0
1.043571250E0,-5.236111450E0,-1.025846741E1,-4.132456512E0
1.053509250E0,-4.330195312E0,-1.032163605E1,-4.856650543E0
1.063448250E0,-3.362906799E0,-1.055994049E1,-4.622537384E0
1.073387250E0,-2.701731720E0,-1.076127182E1,-3.482957153E0
1.083326250E0,-2.384990387E0,-1.088266937E1,-1.970502319E0
1.093264250E0,-2.312091980E0,-1.080108902E1,-2.079176331E-1
1.103203250E0,-2.422113190E0,-1.037447617E1,1.361718292E0
1.113142250E0,-2.407892761E0,-1.011596375E1,2.508483582E0
1.123081250E0,-2.219734039E0,-1.000773880E1,3.149450684E0
1.133020250E0,-2.044448547E0,-9.855505371E0,3.464844818E0
1.142958250E0,-1.844165039E0,-9.488019562E0,3.500021667E0
1.152897250E0,-1.855990448E0,-9.080866241E0,3.258424072E0
1.162836250E0,-2.093247070E0,-8.962013397E0,2.565215607E0
1.172775250E0,-2.473306732E0,-8.810378723E0,1.493294678E0
1.182713250E0,-2.530936890E0,-8.819360046E0,4.581971741E-1
1.192652250E0,-2.255509644E0,-8.883726196E0,-6.511459351E-2
1.202591250E0,-1.903441772E0,-8.721912689E0,-1.669029236E-1
1.212530250E0,-1.580563202E0,-8.519982605E0,-3.632945251E-1
1.222468250E0,-1.607656860E0,-8.153843994E0,-9.256750488E-1
1.232407250E0,-1.933828583E0,-7.448510742E0,-1.353784790E0
1.242346250E0,-2.362088013E0,-6.623276825E0,-1.500180359E0
1.252285250E0,-2.926713867E0,-5.898484039E0,-1.571731567E0
1.262223250E0,-3.558699646E0,-5.413492584E0,-1.572180634E0
1.272162250E0,-4.077371063E0,-5.187761993E0,-1.783990173E0
1.282101250E0,-4.680766296E0,-4.967569885E0,-2.259850616E0
1.292040250E0,-5.086422729E0,-5.084027710E0,-2.360890503E0
1.301979250E0,-5.184917908E0,-5.356910248E0,-2.096989288E0
1.311917250E0,-4.996759186E0,-5.537135468E0,-1.828597412E0
1.321856250E0,-4.600682831E0,-5.553601227E0,-1.584904175E0
1.331795250E0,-4.049678650E0,-5.367687836E0,-1.324894867E0
1.341734250E0,-3.330723724E0,-5.130431213E0,-8.634045410E-1
1.351672250E0,-2.678829346E0,-4.750371552E0,-4.803511047E-1
1.361611250E0,-2.089355164E0,-4.369862823E0,-3.601510620E-1
1.371550250E0,-1.499581604E0,-4.306694183E0,-2.350112915E-1
1.381489250E0,-1.034349060E0,-4.389472046E0,-3.354524231E-1
1.391427250E0,-8.723858643E-1,-4.467759247E0,-9.794132996E-1
1.401366250E0,-1.042432251E0,-4.681065674E0,-2.581531677E0
1.411305250E0,-1.621577911E0,-5.082381134E0,-5.936954041E0
1.421244250E0,-2.711760864E0,-6.596632233E0,-1.032792297E1
1.431183250E0,-4.397255859E0,-8.775052185E0,-1.382105896E1
1.441121250E0,-7.743846588E0,-1.009740234E1,-1.567854630E1
1.451060250E0,-1.355057144E1,-1.028316605E1,-1.403062317E1
1.460999250E0,-1.650243301E1,-1.197419952E1,-8.120762787E0
1.470938250E0,-1.479702942E1,-1.477277985E1,-4.531227264E0
1.480876250E0,-1.173230255E1,-1.468700821E1,-4.439767456E0
1.490815250E0,-9.017098846E0,-1.180220718E1,-5.620512085E0
1.500754250E0,-7.270381165E0,-1.046324158E1,-5.952521667E0
1.510693250E0,-6.568041687E0,-1.165206940E1,-5.488786011E0
1.520631250E0,-6.781797180E0,-1.354967331E1,-4.789140930E0
1.530570250E0,-7.303312683E0,-1.557466232E1,-3.570225677E0
1.540509250E0,-6.818321228E0,-1.741313919E1,-1.521286469E0
1.550448250E0,-5.683381348E0,-1.699221451E1,1.223405914E0
1.560386250E0,-3.829486542E0,-1.373887985E1,2.264191589E0
1.570325250E0,-1.859732666E0,-9.947713623E0,1.907633057E0
1.580264250E0,1.167572021E-2,-7.593708801E0,2.358345795E0
1.590203250E0,1.409468994E0,-6.195167084E0,3.080444183E0
1.600142250E0,2.151925049E0,-5.677842865E0,3.750301208E0
1.610080250E0,2.207758942E0,-6.765930176E0,3.769910431E0
1.620019250E0,1.518442383E0,-8.875044250E0,3.822301483E0
1.629958250E0,6.709048462E-1,-1.027328659E1,3.681594086E0
1.639897250E0,-3.442840576E-2,-1.080977097E1,3.291205902E0
1.649835250E0,-8.006849670E-1,-1.064331711E1,2.772833862E0
1.659774250E0,-1.534010010E0,-1.024334885E1,2.137854309E0
1.669713250E0,-2.104324036E0,-9.976453857E0,1.659000092E0
1.679652250E0,-2.594704285E0,-9.720785522E0,1.420396271E0
1.689590250E0,-3.189417572E0,-9.438472595E0,1.281185760E0
1.699529250E0,-3.732338562E0,-9.215436401E0,1.172960815E0
1.709468250E0,-4.314927063E0,-8.950637054E0,1.167272644E0
1.719407250E0,-5.374723206E0,-8.911717987E0,1.680255890E0
1.729346250E0,-6.115233307E0,-8.750353546E0,1.707199860E0
1.739284250E0,-6.224206696E0,-8.300538940E0,8.900491333E-1
1.749223250E0,-5.996380463E0,-7.942932587E0,-1.405577087E-1
1.759162250E0,-5.691614227E0,-7.558981018E0,-1.247655487E0
1.769101250E0,-5.425617371E0,-7.067403259E0,-2.217189331E0
1.779039250E0,-5.280419312E0,-6.503525848E0,-2.872526550E0
1.788978250E0,-5.184319153E0,-6.086642761E0,-3.064726868E0
1.798917250E0,-5.072801056E0,-6.115382996E0,-2.814147949E0
1.808856250E0,-4.933141479E0,-6.278094635E0,-2.125879211E0
1.818794750E0,-4.745282135E0,-6.449188843E0,-1.277892609E0
1.828733750E0,-4.616250458E0,-6.595434723E0,-4.834945679E-1
1.838672750E0,-4.433031464E0,-6.641538849E0,1.194515991E-1
1.848611750E0,-4.217180328E0,-6.386169891E0,6.521937561E-1
1.858550750E0,-3.969146118E0,-6.408922577E0,9.467811584E-1
1.868488750E0,-3.712130585E0,-6.900949402E0,1.188079376E0
1.878427750E0,-3.600462799E0,-7.558382263E0,1.750609589E0
1.888366750E0,-3.679348755E0,-8.440348206E0,1.348695374E0
1.898305750E0,-3.561094666E0,-9.416168976E0,1.538800049E-1
1.908243750E0,-3.512445831E0,-1.000085312E1,-1.020727386E0
1.918182750E0,-3.930526428E0,-1.006252487E1,-1.387165375E0
1.928121750E0,-4.504582672E0,-1.000489471E1,-6.273454285E-1
1.938060750E0,-5.119953003E0,-1.038839722E1,7.137158203E-1
1.947998750E0,-6.071075134E0,-1.066487228E1,1.726958771E0
1.957937750E0,-6.638245697E0,-1.063283890E1,1.732796631E0
1.967876750E0,-6.561305695E0,-1.039228912E1,1.207688599E0
1.977815750E0,-6.188880157E0,-1.017868332E1,8.550219727E-1
1.987753750E0,-5.927074585E0,-1.008048752E1,8.674461365E-1
1.997692750E0,-5.938151550E0,-1.004935226E1,1.181044006E0
2.007631750E0,-6.106850739E0,-1.010473709E1,1.597028961E0
2.017570750E0,-6.349047089E0,-1.033645523E1,1.883533173E0
2.027509750E0,-6.420598297E0,-1.063717987E1,1.767374725E0
2.037447750E0,-6.152954865E0,-1.078492264E1,1.282383270E0
2.047386750E0,-5.890700226E0,-1.111708191E1,5.620811462E-1
2.057325750E0,-5.723348236E0,-1.156285492E1,-4.089495850E-1
2.067264750E0,-5.566923523E0,-1.157033936E1,-1.452878723E0
2.077202750E0,-5.610932007E0,-1.111738129E1,-2.145638123E0
2.087141750E0,-5.996979218E0,-1.057086777E1,-2.358944550E0
2.097080750E0,-6.410718842E0,-1.015233810E1,-2.489024048E0
2.107019750E0,-6.570137329E0,-9.890532532E0,-2.842289429E0
2.116958750E0,-6.286327515E0,-9.545949097E0,-3.521427155E0
2.126896750E0,-5.661526794E0,-9.081315308E0,-4.259841614E0
2.136835750E0,-4.784051514E0,-8.959169312E0,-4.782554626E0
2.146774750E0,-3.702251129E0,-9.367969208E0,-4.738546143E0
2.156713750E0,-3.096909943E0,-9.943821716E0,-3.932771759E0
2.166651750E0,-2.833308105E0,-1.068343369E1,-2.553839264E0
2.176590750E0,-2.742147675E0,-1.153905441E1,-5.929170227E-1
2.186529750E0,-2.801125031E0,-1.228944397E1,1.472637634E0
2.196468750E0,-2.830763397E0,-1.258373199E1,3.032992859E0
2.206406750E0,-3.043471069E0,-1.225800934E1,3.528013458E0
2.216345750E0,-2.836900635E0,-1.184471878E1,3.545976105E0
2.226284750E0,-2.334694977E0,-1.131796417E1,3.291355591E0
2.236223750E0,-2.395917664E0,-1.031190628E1,2.963237915E0
2.246162750E0,-2.619552612E0,-9.468410339E0,2.475552063E0
2.256100750E0,-2.610421600E0,-8.647816772E0,2.508782959E0
2.266039750E0,-2.584675140E0,-7.959847412E0,3.013084259E0
2.275978750E0,-3.017275543E0,-7.021448822E0,2.690355377E0
2.285917750E0,-3.717669067E0,-6.057453461E0,2.206411743E0
2.295855750E0,-4.348157959E0,-5.489833832E0,1.159788208E0
2.305794750E0,-5.164560242E0,-5.195096741E0,-6.421646118E-1
2.315733750E0,-5.920488281E0,-5.607938232E0,-2.001487885E0
2.325672750E0,-6.261778564E0,-6.460116119E0,-2.864443359E0
2.335610750E0,-6.241570587E0,-7.270979919E0,-3.390748901E0
2.345549750E0,-5.827381897E0,-7.753276978E0,-3.477119293E0
2.355488750E0,-5.296286316E0,-7.708070984E0,-3.246748352E0
2.365427750E0,-4.651576996E0,-6.922953644E0,-3.194656677E0
2.375366750E0,-3.720064087E0,-6.114035797E0,-2.692600708E0
2.385304750E0,-2.692151642E0,-5.471571808E0,-1.755699005E0
2.395243750E0,-1.701062622E0,-4.947361908E0,-6.270460510E-1
2.405182750E0,-7.897576904E-1,-4.507426758E0,4.764591980E-1
2.415121750E0,2.874023438E-2,-4.074676666E0,1.359922028E0
2.425059750E0,7.217990112E-1,-3.656596069E0,2.058219910E0
2.434998750E0,1.166075134E0,-3.292852478E0,2.223176880E0
2.444937750E0,1.224154358E0,-3.086880798E0,1.294508057E0
2.454876750E0,6.201603699E-1,-3.080743561E0,-1.012943573E0
2.464815750E0,-3.652404785E-1,-3.630849609E0,-4.435276794E0
2.474753750E0,-1.513053589E0,-5.135670319E0,-8.475225677E0
2.484692750E0,-3.247796173E0,-7.062613220E0,-1.082459015E1
2.494631750E0,-6.074368286E0,-8.049361267E0,-1.154743698E1
2.504570750E0,-1.103175934E1,-9.246721344E0,-1.705792786E1
2.514508750E0,-1.605695938E1,-1.176388687E1,-1.220097794E1
2.524447750E0,-1.625829071E1,-1.534324356E1,-4.499942322E0
2.534386750E0,-1.387689285E1,-1.795606018E1,-3.699107666E0
2.544325750E0,-1.140328674E1,-1.786235504E1,-4.111350403E0
2.554263750E0,-9.573491821E0,-1.469524109E1,-4.955145721E0
2.564202750E0,-8.235574036E0,-1.138083344E1,-4.809199219E0
2.574141750E0,-6.762936401E0,-1.005234604E1,-2.888243866E0
2.584080750E0,-5.468877411E0,-1.038570282E1,-4.321513367E-1
2.594019750E0,-5.242548065E0,-1.157408157E1,8.258326721E-1
2.603957750E0,-5.861361237E0,-1.200608322E1,8.117619324E-1
2.613896750E0,-5.341641998E0,-1.252729935E1,8.969348145E-1
2.623835750E0,-3.140169983E0,-1.254855515E1,1.172062683E0
2.633774750E0,-1.622026978E0,-1.101903580E1,8.884025574E-1
2.643712750E0,-6.852749634E-1,-9.455836487E0,7.488926697E-1
2.653651750E0,1.356179810E-1,-8.502169647E0,1.214574280E0
2.663590750E0,7.668553162E-1,-8.728498993E0,2.004331970E0
2.673529750E0,6.866221619E-1,-9.987530823E0,2.780168610E0
2.683467750E0,2.302212524E-1,-1.073971664E1,3.135829010E0
2.693406750E0,-3.465293884E-1,-1.034917877E1,2.723885651E0
2.703345750E0,-9.319619751E-1,-9.654473419E0,2.305805054E0
2.713284750E0,-1.413211212E0,-9.260941772E0,2.265987854E0
2.723223750E0,-1.820214844E0,-9.224717102E0,2.255958710E0
2.733161750E0,-2.212399292E0,-9.143436127E0,2.034120026E0
2.743100750E0,-2.688110046E0,-8.801696777E0,1.698817291E0
2.753039750E0,-3.173400879E0,-8.431516571E0,1.317410431E0
2.762978750E0,-3.742068329E0,-8.190368042E0,1.300944672E0
2.772916750E0,-4.575984192E0,-8.221203918E0,1.979932709E0
2.782855750E0,-5.208119659E0,-8.052804108E0,1.746118927E0
2.792794750E0,-5.475613403E0,-7.741750946E0,9.574090576E-1
2.802733750E0,-5.594765625E0,-7.446714478E0,7.259902954E-2
2.812673125E0,-5.873935089E0,-7.118147736E0,-9.913883972E-1
2.822611125E0,-6.025569763E0,-6.982529755E0,-2.308649139E0
2.832550125E0,-6.347400513E0,-6.874304810E0,-3.196452942E0
2.842489125E0,-6.569388885E0,-6.701564026E0,-3.442541199E0
2.852428125E0,-6.592590637E0,-6.560257874E0,-2.746039581E0
2.862366125E0,-6.623576202E0,-6.720724182E0,-1.459614716E0
2.872305125E0,-6.636898499E0,-7.107370148E0,-5.138813782E-1
2.882244125E0,-6.434219971E0,-7.416627045E0,-2.389031982E-1
2.892183125E0,-6.251300354E0,-7.574398956E0,7.933502197E-2
2.902121125E0,-6.141578522E0,-7.509434052E0,2.174977112E-1
2.912060125E0,-5.840404816E0,-7.134613495E0,-9.894424438E-2
2.921999125E0,-5.333858185E0,-6.685697021E0,-6.539900208E-1
2.931938125E0,-4.783003693E0,-6.566245422E0,-9.910890198E-1
2.941877125E0,-4.265978851E0,-6.788233795E0,-1.117575989E0
2.951815125E0,-4.074826355E0,-7.415279846E0,-1.244512024E0
2.961754125E0,-4.326602783E0,-8.041128387E0,-1.197060699E0
2.971693125E0,-4.697082367E0,-8.687035217E0,-7.738906860E-1
2.981632125E0,-4.947212219E0,-9.226812744E0,4.550537109E-2
2.991570125E0,-5.173391876E0,-9.632768555E0,8.065228271E-1
3.001509125E0,-5.389392700E0,-1.002106110E1,1.363364868E0
3.011448125E0,-5.528154144E0,-1.030816406E1,1.777852936E0
3.021387125E0,-5.621110840E0,-1.046339127E1,1.935774536E0
3.031326125E0,-5.791905670E0,-1.059766205E1,1.982627106E0
3.041264125E0,-6.127358093E0,-1.074615326E1,2.073488159E0
3.051203125E0,-6.485862579E0,-1.107876160E1,2.367027740E0
3.061142125E0,-6.683751068E0,-1.159384048E1,2.765798492E0
3.071081125E0,-6.658154297E0,-1.208272385E1,2.952011261E0
3.081019125E0,-6.355483704E0,-1.213002548E1,2.537672882E0
3.090958125E0,-6.021677856E0,-1.172391998E1,1.094673615E0
3.100897125E0,-5.855223999E0,-1.134161499E1,-8.282276917E-1
3.110836125E0,-5.913602600E0,-1.092323502E1,-2.391726379E0
3.120775125E0,-6.138135681E0,-1.051697983E1,-3.229833527E0
3.130713125E0,-6.395600281E0,-1.015892441E1,-3.405568085E0
3.140652125E0,-6.418502655E0,-9.799372101E0,-3.299887848E0
3.150591125E0,-6.287075958E0,-9.426497498E0,-3.174598389E0
3.160530125E0,-6.034251709E0,-9.028924255E0,-3.043770447E0
3.170468125E0,-5.567073212E0,-8.543483734E0,-2.943928070E0
3.180407125E0,-4.808151398E0,-7.982749786E0,-2.897973633E0
3.190346125E0,-4.126768341E0,-7.253466339E0,-3.519481201E0
3.200285125E0,-3.491788788E0,-6.815177765E0,-4.362827454E0
3.210223125E0,-3.054398346E0,-7.068451080E0,-4.113895111E0
3.220162125E0,-2.938988342E0,-8.095914459E0,-2.624642029E0
3.230101125E0,-2.890938263E0,-9.343120880E0,-7.192543030E-1
3.240040125E0,-2.990630951E0,-1.047865952E1,9.011260986E-1
3.249979125E0,-3.016227722E0,-1.130673752E1,2.261347504E0
3.259917125E0,-2.993475037E0,-1.164982407E1,3.322490845E0
3.269856125E0,-2.722538452E0,-1.180505127E1,4.104913788E0
3.279795125E0,-2.342478790E0,-1.207104813E1,4.499942322E0
3.289734125E0,-2.172432404E0,-1.193108917E1,4.922363892E0
3.299672125E0,-1.920805664E0,-1.153486313E1,5.079537048E0
3.309611125E0,-1.624871063E0,-1.080917221E1,3.786525879E0
3.319550125E0,-1.406325531E0,-9.640402679E0,2.222877502E0
3.329489125E0,-1.202299805E0,-8.577612762E0,1.421444092E0
3.339428125E0,-1.365460510E0,-8.064180450E0,7.536827087E-1
