"Time (s)","X (m/s^2)","Y (m/s^2)","Z (m/s^2)"
0.000000000E0,-1.825753326E0,5.648653564E0,7.735164642E0
1.004599995E-2,-1.665137329E0,5.627996521E0,7.639663239E0
2.009199996E-2,-1.695524139E0,5.849984894E0,7.683372345E0
3.013799997E-2,-1.702110443E0,6.164331207E0,7.989785156E0
4.018399998E-2,-1.817520447E0,6.477929077E0,8.417445831E0
5.022999999E-2,-2.061812439E0,6.666836243E0,8.749754791E0
6.027699995E-2,-2.340532837E0,6.546636200E0,8.844956818E0
7.032299996E-2,-2.604284363E0,6.234086151E0,8.753796387E0
8.036899997E-2,-2.945574646E0,6.190377045E0,8.494685211E0
9.041499998E-2,-3.344644775E0,6.388564911E0,8.159981232E0
1.004610000E-1,-3.690126343E0,6.667434998E0,8.005801849E0
1.105070000E-1,-3.916755066E0,6.908134460E0,8.100405121E0
1.205530000E-1,-3.867956543E0,6.902895355E0,8.347840576E0
1.305990000E-1,-3.666026459E0,6.693480835E0,8.581953735E0
1.406460000E-1,-3.514990540E0,6.459217987E0,8.572074280E0
1.506920000E-1,-3.385659485E0,6.318660278E0,8.706045685E0
1.607379999E-1,-3.208877106E0,6.160439301E0,9.033414917E0
1.707840000E-1,-2.997067566E0,5.911506958E0,9.105115814E0
1.808300000E-1,-2.884950714E0,5.672304382E0,9.195827179E0
1.908760000E-1,-2.781366119E0,5.454357605E0,8.868008881E0
2.009220000E-1,-2.733914795E0,5.393434296E0,8.607101440E0
2.109680000E-1,-2.493664398E0,5.186564484E0,8.590186615E0
2.210140000E-1,-2.068698120E0,4.641697540E0,8.552914124E0
2.310610000E-1,-1.689686279E0,4.029770050E0,8.803792419E0
2.411060000E-1,-1.428030396E0,3.595523071E0,9.194479980E0
2.511530000E-1,-1.595232697E0,3.635040894E0,9.258097687E0
2.611990000E-1,-2.281854858E0,4.182751923E0,8.913813629E0
2.712450000E-1,-3.212170258E0,4.960684204E0,8.522677002E0
2.812910000E-1,-4.280798035E0,5.455405426E0,8.623417511E0
2.913370000E-1,-5.250182190E0,5.769452362E0,8.642727356E0
3.013830000E-1,-6.041137390E0,5.828280029E0,8.396040344E0
3.114290000E-1,-6.227649536E0,5.499713287E0,8.812174988E0
3.214750000E-1,-6.012097778E0,5.213209076E0,9.103768616E0
3.315220000E-1,-5.475763092E0,5.038222961E0,9.119785309E0
3.415680000E-1,-4.939278717E0,5.084626465E0,9.484876099E0
3.516140000E-1,-4.592599640E0,5.425168304E0,8.927884369E0
3.616600000E-1,-4.450095978E0,5.377118225E0,8.119415588E0
3.717060000E-1,-4.456682281E0,4.806355133E0,8.044271851E0
3.817520000E-1,-4.580624542E0,4.245770874E0,7.932903442E0
3.917980000E-1,-4.667444000E0,3.913910980E0,7.543413391E0
4.018440000E-1,-4.672084351E0,3.821852417E0,7.385192413E0
4.118910000E-1,-4.696184235E0,3.881727905E0,7.511978760E0
4.219369999E-1,-5.024601288E0,5.290149078E0,7.205715637E0
4.319830000E-1,-4.339476013E0,3.743864594E0,7.651189270E0
4.420290000E-1,-3.674708405E0,2.228715363E0,7.372019806E0
4.520750000E-1,-3.454366608E0,3.892505493E0,4.431983643E0
4.621210000E-1,-1.442250824E0,1.201251984E0,7.222480774E0
4.721670000E-1,-1.206491089E0,-1.240919495E-1,8.028554535E0
4.822130000E-1,-2.529440002E0,4.448748779E-1,7.125781860E0
4.922600000E-1,-2.776127014E0,3.284170532E-1,6.891668701E0
5.023060000E-1,-3.671415253E0,2.177521820E0,6.035898285E0
5.123520000E-1,-4.470303955E0,4.111051025E0,6.483168182E0
5.223980000E-1,-3.253184967E0,3.791465607E0,6.951693878E0
5.324440000E-1,-1.547931061E0,2.876418457E0,7.089257813E0
5.424900000E-1,-1.760638733E0,2.926713867E0,6.785988464E0
5.525360000E-1,-2.296823730E0,2.849025421E0,6.248007202E0
5.625820000E-1,-2.278262329E0,2.639610901E0,6.283483429E0
5.726290000E-1,-1.976190491E0,2.540516968E0,6.736591187E0
5.826750000E-1,-1.626068573E0,2.429597626E0,7.335795135E0
5.927210000E-1,-1.438807983E0,2.114502869E0,8.663234711E0
6.027670000E-1,-2.004631348E0,1.438807983E0,9.733808441E0
6.128130000E-1,-2.908900909E0,-2.844085693E-3,1.006611740E1
6.228621250E-1,-3.040926361E0,-7.762857056E-1,9.240733795E0
6.329081250E-1,-2.946772156E0,-3.926335144E-1,9.234895935E0
6.429541250E-1,-2.465672607E0,6.750961304E-1,1.002330643E1
6.530011250E-1,-1.834584961E0,1.656156006E0,1.018691620E1
6.630471250E-1,-1.302142181E0,2.322570190E0,9.875114594E0
6.730931250E-1,-9.439370728E-1,2.426454163E0,9.519603882E0
6.831391250E-1,-5.860313416E-1,2.353705444E0,9.321416016E0
6.931851250E-1,-1.246907043E-1,2.388433228E0,9.158704376E0
7.032311250E-1,2.347119141E-1,2.507585449E0,8.750802612E0
7.132771250E-1,5.123844910E-1,2.652783508E0,8.699459381E0
7.233231250E-1,6.165678406E-1,2.692301331E0,9.042096863E0
7.333691250E-1,1.291963348E0,2.488724670E0,9.884095917E0
7.434161250E-1,1.048270111E0,3.567381592E0,1.213152237E1
7.534621250E-1,8.762777710E-1,4.287384338E0,8.826395416E0
7.635081250E-1,1.057850189E0,3.555406494E0,9.204209747E0
7.735541250E-1,1.228645020E0,3.650458832E0,9.140592041E0
7.836001250E-1,1.367107086E0,3.900289307E0,8.902736664E0
7.936461249E-1,1.468146973E0,3.866908722E0,8.481512604E0
8.036921250E-1,1.405876465E0,3.874991913E0,7.863298187E0
8.137381250E-1,1.389261017E0,3.844455414E0,7.338040466E0
8.237851250E-1,1.352437592E0,3.772006073E0,7.081923065E0
8.338311250E-1,1.328188019E0,3.979175262E0,6.636150055E0
8.438771249E-1,1.016985168E0,3.636986847E0,5.572462006E0
8.539231250E-1,4.035607910E-1,1.995949402E0,4.885839844E0
8.639691250E-1,-1.688488770E-1,9.000782776E-1,4.463418274E0
8.740151250E-1,3.098556519E-1,1.734143829E0,2.324366455E0
8.840611250E-1,6.011499023E-1,1.851050720E0,5.191204834E-1
8.941071250E-1,3.430865479E-1,1.442699890E0,2.513273621E-1
9.041541250E-1,7.402107239E-1,1.519639893E0,-7.637118530E-1
9.142001250E-1,1.488804016E0,1.575024719E0,-2.232607269E0
9.242461250E-1,2.154170380E0,1.331481171E0,-2.784808960E0
9.342921250E-1,2.850222931E0,9.148974609E-1,-2.995420990E0
9.443381250E-1,3.020568695E0,6.553372192E-1,-3.415297852E0
9.543841250E-1,3.336262207E0,1.276844788E-1,-3.523522797E0
9.644301250E-1,3.932023315E0,-1.848655701E-1,-3.291505280E0
9.744761250E-1,4.359683990E0,-4.511618042E-1,-2.882256317E0
9.845231250E-1,4.334985352E0,-9.581575012E-1,-1.924098816E0
9.945691250E-1,4.362378387E0,-1.733844452E0,-6.920109558E-1
1.004615125E0,4.905000000E0,-2.392774200E0,1.710942078E-1
1.014661125E0,6.108946381E0,-2.531835022E0,-1.423539734E-1
1.024707125E0,7.039710846E0,-2.300116882E0,-9.687854004E-1
1.034753125E0,7.432793427E0,-2.267634430E0,-1.277443542E0
1.044799125E0,7.506739655E0,-2.294129333E0,-1.352736969E0
1.054845125E0,7.638615417E0,-2.357896729E0,-1.311572571E0
1.064892125E0,7.690856781E0,-2.813998260E0,-9.080117798E-1
1.074938125E0,8.325536957E0,-3.652404785E0,-5.156776428E-1
1.084984125E0,9.863887939E0,-4.782255249E0,3.826043701E-1
1.095030125E0,1.214679062E1,-5.533692627E0,1.802252197E0
1.105076125E0,1.477352829E1,-5.995332642E0,2.429747314E0
1.115122125E0,1.723845245E1,-6.534960480E0,1.982028351E0
1.125168125E0,1.913321228E1,-6.769522705E0,5.848338318E-1
1.135214125E0,2.101494919E1,-6.730304260E0,-2.646945648E0
1.145261125E0,2.124157791E1,-7.006929016E0,-5.068909149E0
1.155307125E0,2.060944244E1,-7.391329651E0,-4.144581299E0
1.165353125E0,1.988449997E1,-7.555837555E0,-2.789898376E0
1.175399125E0,2.171639053E1,-7.178172913E0,-2.318378906E0
1.185445125E0,2.340368179E1,-6.503525848E0,-2.029180298E0
1.195491125E0,2.412308578E1,-7.877817993E0,-3.682043152E0
1.205537125E0,2.320309891E1,-7.974816284E0,-5.888005829E0
1.215583125E0,2.176099777E1,-7.028334503E0,-5.932164001E0
1.225630125E0,1.964888992E1,-7.554190979E0,-4.723427582E0
1.235676125E0,1.653341858E1,-8.832832031E0,-2.197131042E0
1.245722125E0,1.327319824E1,-9.608219604E0,8.334667969E-1
1.255768125E0,1.065229843E1,-9.431736603E0,3.171155548E0
1.265814125E0,8.621920624E0,-9.406439209E0,3.606600037E0
1.275860125E0,7.506140900E0,-9.186247101E0,2.562820587E0
1.285906125E0,7.153324585E0,-8.590785370E0,1.842518463E0
1.295952125E0,7.228318634E0,-7.969128113E0,2.069296875E0
1.305998125E0,7.221283264E0,-7.348668365E0,2.604583740E0
1.316045125E0,6.420598297E0,-7.016958160E0,3.301085358E0
1.326091125E0,5.723198547E0,-7.003336487E0,3.646417236E0
1.336137125E0,4.991220703E0,-6.967560883E0,3.773203583E0
1.346183125E0,4.504283295E0,-7.157665558E0,3.953578491E0
1.356229125E0,4.159250793E0,-7.250921631E0,3.967200165E0
1.366275125E0,4.458179169E0,-6.987170105E0,3.721710663E0
1.376321125E0,5.085674286E0,-7.631729736E0,2.984344025E0
1.386367125E0,5.952222290E0,-7.980055389E0,2.699935455E0
1.396414125E0,7.261699219E0,-7.473209381E0,3.433110809E0
1.406460125E0,8.322692871E0,-7.504644012E0,4.113146667E0
1.416506125E0,7.642956390E0,-7.777227173E0,4.496349792E0
1.426552125E0,7.384593658E0,-6.750212860E0,5.877826996E0
1.436598125E0,8.089178467E0,-5.627846832E0,6.199508057E0
1.446644125E0,6.510112152E0,-6.275549927E0,2.875969391E0
1.456690125E0,5.748196564E0,-6.251599731E0,8.520281982E-1
1.466737125E0,6.880591736E0,-5.843398590E0,-1.290915527E0
1.476783125E0,7.014114075E0,-5.841302948E0,-2.715203705E0
1.486829125E0,6.220314789E0,-4.904850311E0,1.994901581E0
1.496875125E0,6.221811676E0,-5.203179932E0,3.458258514E0
1.506921125E0,5.787415009E0,-6.974745941E0,2.747386780E0
1.516967125E0,4.897216187E0,-7.774233398E0,2.934497681E0
1.527013125E0,5.232668610E0,-7.829169159E0,3.239114227E0
1.537059125E0,4.842130737E0,-7.075187073E0,4.645439758E0
1.547105125E0,5.564977570E0,-5.920937347E0,4.915478210E0
1.557152125E0,6.767277374E0,-6.521638184E0,4.259392548E0
1.567198125E0,5.745352478E0,-6.519243164E0,5.295837250E0
1.577244125E0,4.803511047E0,-5.339396667E0,4.918322296E0
1.587290125E0,4.661456451E0,-4.522844696E0,1.005908203E0
1.597336125E0,4.071084137E0,-4.725373535E0,6.988966370E-1
1.607382125E0,2.916535034E0,-4.004023590E0,9.527687073E-1
1.617428125E0,1.694476318E0,-3.941603394E0,1.268013153E0
1.627471750E0,1.403331757E0,-5.141657867E0,5.112767944E0
1.637517750E0,1.029109955E0,-4.825215912E0,1.094059891E1
1.647563750E0,6.451583862E-1,-3.268752594E0,1.315868637E1
1.657609750E0,4.475842438E0,-2.588417358E0,6.882687378E0
1.667655750E0,6.163283386E0,-1.880838776E0,-2.986439667E0
1.677701750E0,5.962550812E0,-3.187172241E0,-5.092410278E-1
1.687747750E0,5.439837799E0,-4.912933502E0,3.970193939E0
1.697793750E0,4.816983032E0,-4.861590271E0,9.022637329E0
1.707840750E0,4.872218170E0,-5.377866669E0,1.029603928E1
1.717886750E0,5.143154755E0,-4.989574127E0,7.874375153E0
1.727932750E0,5.491779785E0,-4.331841888E0,5.977968750E0
1.737978750E0,5.679489441E0,-3.810625763E0,5.468727722E0
1.748024750E0,5.312452698E0,-3.944896545E0,6.262527008E0
1.758070750E0,4.515809326E0,-4.135150909E0,7.395970001E0
1.768116750E0,4.112398224E0,-4.038302307E0,7.415728912E0
1.778162750E0,4.243226166E0,-4.597689056E0,6.454877014E0
1.788209750E0,4.784051514E0,-5.962700500E0,5.052742767E0
1.798255750E0,5.194348297E0,-6.658453674E0,2.921474762E0
1.808301750E0,4.645739136E0,-7.964637451E0,1.791175232E0
1.818347750E0,4.289779358E0,-9.227261810E0,3.078198853E0
1.828393750E0,4.575684814E0,-9.902807007E0,4.291575623E0
1.838439750E0,6.361920319E0,-1.148965714E1,3.495531006E0
1.848485750E0,8.804840240E0,-1.137604340E1,1.777852936E0
1.858531750E0,9.720186768E0,-9.916877747E0,1.594783630E0
1.868578750E0,9.385183411E0,-1.125075394E1,2.941383362E0
1.878624750E0,8.656648407E0,-1.170999893E1,3.092419281E0
1.888670750E0,7.745942230E0,-1.114821716E1,2.381996613E0
1.898716750E0,6.719526672E0,-1.150941605E1,2.542313232E0
1.908762750E0,5.935157776E0,-1.037282959E1,5.419031067E0
1.918808750E0,4.780758362E0,-1.026146118E1,6.498586121E0
1.928854750E0,4.283492432E0,-9.982890472E0,6.495143280E0
1.938900750E0,3.886667633E0,-9.484127655E0,6.015091553E0
1.948947750E0,3.775748291E0,-9.522447968E0,5.727389832E0
1.958993750E0,3.999981995E0,-9.817933502E0,7.281607819E0
1.969039750E0,4.321663055E0,-1.036085449E1,7.760012970E0
1.979085750E0,4.831951904E0,-1.072609497E1,5.788762207E0
1.989131750E0,4.771178284E0,-1.097128510E1,4.680616608E0
1.999177750E0,4.046535187E0,-1.138966507E1,5.026996307E0
2.009223750E0,4.062701569E0,-1.154893387E1,3.582799530E0
2.019270750E0,3.952830048E0,-1.190309738E1,3.266806641E0
2.029316750E0,3.902983704E0,-1.229393463E1,3.524570618E0
2.039362750E0,4.733307037E0,-1.106873245E1,1.901046753E0
2.049408750E0,4.608766022E0,-1.044752426E1,2.816093903E0
2.059454750E0,5.074597321E0,-9.558373260E0,2.713557129E0
2.069500750E0,5.016817474E0,-8.419691162E0,1.386416931E0
2.079546750E0,4.475543060E0,-7.745642853E0,1.698218536E0
2.089592750E0,3.635040894E0,-6.859036560E0,1.606159973E0
2.099639750E0,2.739303589E0,-6.161936188E0,2.243983612E0
2.109685750E0,3.151995392E0,-5.231321411E0,1.852996674E0
2.119731750E0,4.231999512E0,-4.046684875E0,8.547225952E-1
2.129777750E0,4.105512543E0,-3.525019684E0,7.638615417E-1
2.139823750E0,4.122427368E0,-3.330574036E0,7.267387390E-1
2.149869750E0,3.847748566E0,-3.448977814E0,2.079176331E-1
2.159915750E0,3.062032471E0,-3.673211517E0,-7.888595581E-2
2.169961750E0,2.984194336E0,-3.676504669E0,6.316864014E-2
2.180008750E0,2.998414764E0,-3.854035492E0,-6.511459351E-2
2.190054750E0,2.277214508E0,-4.086502075E0,3.487747192E-2
2.200100750E0,2.147434387E0,-4.183051300E0,2.755769348E-1
2.210146750E0,2.814896393E0,-4.287234650E0,1.062789917E-1
2.220192750E0,3.460054779E0,-4.433779907E0,-2.174977112E-1
2.230238750E0,3.736380157E0,-4.581971741E0,-5.234614563E-1
2.240284750E0,3.747008057E0,-5.109325104E0,-4.064048767E-1
2.250331750E0,3.445534973E0,-6.366860046E0,7.165599060E-1
2.260377750E0,2.433339844E0,-7.952662354E0,2.514321442E0
2.270423750E0,2.348166962E0,-9.166488190E0,1.412013702E0
2.280469750E0,2.572700043E0,-1.018422180E1,3.745211792E-1
2.290515750E0,2.638263702E0,-1.100451599E1,-1.235530701E0
2.300561750E0,3.330574036E0,-1.133817215E1,-3.044219513E0
2.310607750E0,4.362677765E0,-1.017074982E1,-3.719764709E0
2.320653750E0,3.270399170E0,-1.110615463E1,-2.602637787E0
2.330700750E0,3.364852753E0,-1.060619431E1,-9.663903809E-1
2.340746750E0,3.075654144E0,-1.111244156E1,-1.006506958E0
2.350792750E0,2.150128784E0,-1.241877502E1,-4.908293152E-1
2.360838750E0,4.283941498E0,-1.152049301E1,1.864672394E0
2.370884750E0,5.581892395E0,-9.415121155E0,2.445165253E0
2.380930750E0,3.225941620E0,-1.208137665E1,3.528612213E0
2.390976750E0,1.673669586E0,-1.336286179E1,-8.985813904E-1
2.401022750E0,3.930227051E0,-1.277458511E1,-3.906725922E0
2.411069750E0,5.791157227E0,-1.211924789E1,-5.830974426E0
2.421115750E0,6.389612732E0,-1.159294235E1,-6.490502930E0
2.431161750E0,6.464756470E0,-1.108624603E1,-5.382357330E0
2.441207750E0,6.055956573E0,-1.103610031E1,-4.588108978E0
2.451253750E0,5.062921600E0,-1.135703293E1,-2.710263977E0
2.461299750E0,3.655847626E0,-1.198512680E1,-3.113525391E-2
2.471345750E0,2.805316315E0,-1.208601700E1,2.386038208E0
2.481391750E0,2.186802521E0,-1.221654556E1,3.743714905E0
2.491438750E0,2.090103607E0,-1.334983887E1,3.374432831E0
2.501484750E0,2.740351410E0,-1.408091858E1,3.252885590E0
2.511530750E0,3.469784546E0,-1.359068802E1,2.585423584E0
2.521576750E0,3.414549408E0,-1.187001617E1,9.535171509E-1
2.531622750E0,2.699486389E0,-1.015832565E1,7.647596741E-1
2.541668750E0,1.899998932E0,-9.233399048E0,1.080303497E0
2.551714750E0,1.895208893E0,-8.784781952E0,2.204765167E0
2.561761750E0,2.101629639E0,-8.242160339E0,4.040547638E0
2.571807750E0,2.430495758E0,-7.666607208E0,4.065246277E0
2.581853750E0,2.728825378E0,-7.526947632E0,3.786525879E0
2.591899750E0,3.176244965E0,-7.591014404E0,3.226989441E0
2.601945750E0,3.902834015E0,-8.079299011E0,1.980830841E0
2.611991750E0,3.866309967E0,-9.339079285E0,1.690734100E0
2.622037750E0,3.768563232E0,-1.037178177E1,1.682351532E0
2.632084000E0,4.228856049E0,-1.063583267E1,1.642234955E0
2.642131000E0,4.422104187E0,-1.020921982E1,1.889670410E0
2.652177000E0,4.130660248E0,-9.640702057E0,1.994302826E0
2.662223000E0,3.756438446E0,-8.893306274E0,1.732946320E0
2.672269000E0,3.173400879E0,-6.186634827E0,3.206332397E0
2.682315000E0,2.960693207E0,-6.713539124E0,3.799099731E-1
2.692361000E0,8.553213501E-1,-9.620643768E0,-1.806742859E0
2.702407000E0,8.955876160E-1,-6.068829803E0,5.095404053E-1
2.712453000E0,1.852397919E0,-5.100643158E0,1.396595764E-1
2.722500000E0,2.310894470E0,-5.311105499E0,4.638853455E-1
2.732546000E0,2.589165802E0,-5.119653625E0,6.752458191E-1
2.742592000E0,2.812052307E0,-5.516328735E0,9.068142700E-1
2.752638000E0,3.099155273E0,-5.656587067E0,5.617817688E-1
2.762684000E0,3.550766144E0,-5.844147034E0,4.303550720E-1
2.772730000E0,4.083508301E0,-6.036796417E0,4.739144897E-1
2.782776000E0,4.342769165E0,-5.966592407E0,-2.948867798E-2
2.792822000E0,4.894671478E0,-6.068081360E0,3.188369751E-1
2.802869000E0,4.771627350E0,-6.058201904E0,6.194119263E-1
2.812915000E0,4.877008209E0,-6.071524200E0,8.095166016E-1
2.822961000E0,4.874912567E0,-6.371949463E0,7.981402588E-1
2.833007000E0,4.893623657E0,-7.217391357E0,7.502398682E-1
2.843053000E0,4.678820343E0,-7.281308441E0,1.272204437E0
2.853099000E0,4.529880066E0,-7.804171143E0,2.785557404E0
2.863145000E0,2.956202545E0,-7.527995453E0,2.014810181E-1
2.873192000E0,2.868484955E0,-9.307195587E0,1.329834595E0
2.883238000E0,3.497926025E0,-9.429491272E0,1.802850952E0
2.893284000E0,2.964435425E0,-8.846004639E0,1.754351807E0
2.903330000E0,2.119292908E0,-6.301446075E0,7.542814636E-1
2.913376000E0,1.082698517E0,6.762936401E0,5.009931793E0
2.923422000E0,2.524649963E0,-5.642366638E0,4.322561188E0
2.933468000E0,1.166374512E0,-4.906197510E0,1.653012543E0
2.943514000E0,-8.837622070E-1,-7.011269989E0,5.680986328E0
2.953561000E0,-1.285526733E0,-1.117965179E1,4.390220490E0
2.963607000E0,6.277944946E-1,-1.520238647E1,-1.465003510E0
2.973653000E0,3.689228210E0,-1.792252991E1,-4.494553528E0
2.983699000E0,5.196893005E0,-1.717378693E1,-6.273454285E-1
2.993745000E0,4.703369293E0,-1.449884949E1,2.979703674E0
3.003791000E0,3.339555359E0,-1.146435974E1,-1.798509979E0
3.013837000E0,2.063009949E0,-7.142546997E0,-3.710034943E0
3.023883000E0,2.360890503E0,-7.697143707E0,-7.177574158E-1
3.033930000E0,1.752405853E0,-1.060320053E1,-7.860154724E-1
3.043976000E0,2.848276978E0,-1.256112900E1,-2.709515533E0
3.054022000E0,4.032015381E0,-1.334998856E1,3.607498169E-2
3.064068000E0,4.232598267E0,-1.183289337E1,1.550176392E0
3.074114000E0,4.525539093E0,-1.034169434E1,2.165097656E0
3.084160000E0,4.469405823E0,-1.055006104E1,3.492986298E0
3.094206000E0,4.804708557E0,-1.499132538E1,8.286019135E0
3.104252000E0,4.473597107E0,-1.386521713E1,-7.027885437E-1
3.114299000E0,3.644770660E0,-1.078147980E1,-6.408174133E-1
3.124345000E0,2.132315826E0,-8.465944977E0,2.550546112E0
3.134391000E0,1.221010895E0,-8.456963654E0,2.039808197E0
3.144437000E0,2.689906311E-1,-9.133257294E0,6.026467896E-1
3.154483000E0,-6.533912659E-1,-1.032941986E1,-1.975891113E-1
3.164529000E0,-6.158193970E-1,-1.163246017E1,8.502319336E-1
3.174575000E0,5.258564758E-1,-1.281275574E1,1.862277374E0
3.184622000E0,1.933229828E0,-1.368888382E1,9.699829102E-1
3.194668000E0,2.842588806E0,-1.411429916E1,-4.661306763E-1
3.204714000E0,2.940934296E0,-1.461949860E1,-9.517208862E-1
3.214760000E0,2.785856781E0,-1.460887070E1,-1.734592896E0
3.224806000E0,2.701132965E0,-1.524429932E1,-4.654271393E0
3.234852000E0,2.371967468E0,-1.602911728E1,-4.753964081E0
3.244898000E0,2.115850067E0,-1.634421204E1,-3.854035492E0
3.254944000E0,2.480342102E0,-1.580712891E1,-3.218906250E0
3.264991000E0,2.816093903E0,-1.449510727E1,-2.511177979E0
3.275037000E0,2.905158691E0,-1.304327637E1,-2.059118042E0
3.285083000E0,2.825973358E0,-1.198572556E1,-1.132245483E0
3.295129000E0,2.721790009E0,-1.106020020E1,3.269201660E-1
3.305175000E0,2.954106903E0,-1.032582733E1,6.033952332E-1
3.315221000E0,3.211870880E0,-9.664203186E0,4.962181091E-1
3.325267000E0,3.304228821E0,-9.293274536E0,2.960842896E-1
3.335313000E0,2.705773315E0,-8.950637054E0,1.965412903E-1
3.345360000E0,2.151176605E0,-8.207582245E0,2.748284912E-1
3.355406000E0,1.999841309E0,-7.009324036E0,1.010398865E-1
3.365452000E0,1.564845886E0,-6.328839111E0,-2.598596191E-1
3.375498000E0,9.960287476E-1,-5.920338593E0,-5.824388123E-1
3.385544000E0,4.270619202E-1,-4.919968872E0,-3.363505554E-1
3.395590000E0,-1.338217163E-1,-4.264182587E0,2.254312134E-1
3.405636000E0,-8.375083923E-1,-3.651207275E0,1.886077881E-1
3.415683000E0,-1.400637360E0,-3.077300720E0,-2.275268555E-1
3.425729000E0,-1.600172424E0,-2.832859039E0,-4.209246826E-1
3.435775000E0,-1.581161957E0,-2.787203979E0,-9.264234924E-1
3.445821000E0,-1.532213745E0,-3.135379944E0,-1.328337708E0
