"Time (s)","Acceleration x (m/s^2)","Acceleration y (m/s^2)","Acceleration z (m/s^2)"
0.000000000E0,-1.133056641E0,4.724609375E0,7.196853638E0
4.974365000E-3,-1.178543091E0,4.667144775E0,7.208831787E0
9.979248000E-3,-1.274307251E0,4.628829956E0,7.271072388E0
1.498413100E-2,-1.334167480E0,4.609680176E0,7.362060547E0
1.998901300E-2,-1.305435181E0,4.580947876E0,7.448242188E0
2.499389600E-2,-1.195312500E0,4.523483276E0,7.479370117E0
2.999877900E-2,-1.039688110E0,4.439697266E0,7.441055298E0
3.500366200E-2,-8.601226807E-1,4.346313477E0,7.381210327E0
4.000854500E-2,-7.882843018E-1,4.097320557E0,7.374023438E0
4.501342700E-2,-7.811126709E-1,3.857894897E0,7.527252197E0
5.001831000E-2,-7.954711914E-1,3.678329468E0,7.788223267E0
5.502319300E-2,-7.547760010E-1,3.651992798E0,8.149749756E0
6.002807600E-2,-6.206970215E-1,3.793258667E0,8.626190186E0
6.500244100E-2,-3.908538818E-1,4.006347656E0,9.117004395E0
7.000732400E-2,-1.226959229E-1,4.207458496E0,9.595840454E0
7.501220700E-2,1.334838867E-1,4.319976807E0,1.004595947E1
8.001709000E-2,3.513488770E-1,4.322372437E0,1.038592529E1
8.502197200E-2,5.021820068E-1,4.240966797E0,1.055113220E1
9.002685500E-2,6.051330566E-1,4.116470337E0,1.051521301E1
9.503173800E-2,6.290740967E-1,3.975219727E0,1.028776550E1
1.000366210E-1,5.859832764E-1,3.848327637E0,9.954971313E0
1.050415040E-1,5.069732666E-1,3.790863037E0,9.591049194E0
1.100463860E-1,3.010711670E-1,3.776504517E0,9.265441895E0
1.150512690E-1,-5.805969238E-2,3.793258667E0,9.045181274E0
1.200561520E-1,-5.081634521E-1,3.829177856E0,8.927856445E0
1.250610350E-1,-9.894104004E-1,3.805221558E0,8.911102295E0
1.300659180E-1,-1.413177490E0,3.719039917E0,8.954193115E0
1.350402830E-1,-1.724426270E0,3.611297607E0,9.011657715E0
1.400451660E-1,-1.920745850E0,3.594543457E0,9.069122314E0
1.450500490E-1,-1.920745850E0,3.601715088E0,8.949401855E0
1.500549310E-1,-1.738784790E0,3.635238647E0,8.647735596E0
1.550598140E-1,-1.542465210E0,3.651992798E0,8.269454956E0
1.600646970E-1,-1.360504150E0,3.711853027E0,7.857650757E0
1.650695800E-1,-1.195312500E0,3.845932007E0,7.386001587E0
1.700744630E-1,-1.013351440E0,4.116470337E0,6.866455078E0
1.750793450E-1,4.968261719E-2,5.282455444E0,6.203262329E0
1.800842280E-1,8.708953857E-1,6.012680054E0,6.105102539E0
1.850891110E-1,5.428924561E-1,5.574539185E0,6.540847778E0
1.900939940E-1,-1.969299316E-1,4.746154785E0,6.931091309E0
1.950988770E-1,-9.654693604E-1,3.920150757E0,7.421905518E0
2.001037600E-1,-1.573593140E0,3.309631348E0,8.202423096E0
2.051086420E-1,-2.002151489E0,2.928955078E0,9.210372925E0
2.101135250E-1,-2.191299438E0,2.708679199E0,1.023269653E1
2.151184080E-1,-2.212844849E0,2.550674438E0,1.117123413E1
2.201232910E-1,-2.035675049E0,2.466873169E0,1.193019104E1
2.251281740E-1,-1.693298340E0,2.462081909E0,1.239706421E1
2.301330560E-1,-1.262344360E0,2.498001099E0,1.244973755E1
2.351379390E-1,-8.648986816E-1,2.543487549E0,1.211694336E1
2.401428220E-1,-5.632324219E-1,2.572219849E0,1.139868164E1
2.451477050E-1,-4.507141113E-1,2.574615479E0,1.037635803E1
2.501525880E-1,-5.895690918E-1,2.498001099E0,9.289382935E0
2.551574700E-1,-9.127960205E-1,2.373489380E0,8.322128296E0
2.601623530E-1,-8.002624512E-1,2.454895020E0,7.196853638E0
2.651672360E-1,-6.757659912E-1,2.500381470E0,6.126647949E0
2.701721190E-1,-9.223632812E-1,2.344772339E0,5.358108521E0
2.751770020E-1,-1.269531250E0,2.126892090E0,5.137832642E0
2.801818850E-1,-1.587951660E0,1.863525391E0,5.475418091E0
2.851867670E-1,-1.698089600E0,1.772552490E0,6.073974609E0
2.901611330E-1,-1.595138550E0,1.803680420E0,6.713226318E0
2.951660150E-1,-1.338958740E0,1.851562500E0,7.433883667E0
3.001708980E-1,-8.577270508E-1,1.853958130E0,8.707595825E0
3.051757810E-1,-3.693084717E-1,1.901840210E0,9.696395874E0
3.101806640E-1,-1.514282227E-1,1.940139771E0,1.008186340E1
3.151855470E-1,-5.566406250E-2,1.920989990E0,1.048170471E1
3.201904290E-1,-1.179199219E-1,1.839584351E0,1.093420410E1
3.251953120E-1,-4.315490723E-1,1.755798340E0,1.135079956E1
3.302001950E-1,-9.534912109E-1,1.719879150E0,1.169316101E1
3.352050780E-1,-1.556823730E0,1.727066040E0,1.195173645E1
3.402099610E-1,-2.117080688E0,1.762969971E0,1.211454773E1
3.452148440E-1,-2.545639038E0,1.808471680E0,1.214328003E1
3.502197260E-1,-2.768295288E0,1.863525391E0,1.202116394E1
3.552246090E-1,-2.763504028E0,1.906631470E0,1.166682434E1
3.602294920E-1,-2.574371338E0,1.913803101E0,1.112812805E1
3.652343750E-1,-2.332550049E0,1.909027100E0,1.042663574E1
3.702392580E-1,-2.073974609E0,1.904235840E0,9.662887573E0
3.752441400E-1,-1.834564209E0,1.887466431E0,9.035598755E0
3.802490230E-1,-1.592742920E0,1.858749390E0,8.556762695E0
3.852539060E-1,-1.362899780E0,1.856353760E0,8.164108276E0
3.902587890E-1,-1.171356201E0,1.863525391E0,7.850463867E0
3.952636720E-1,-1.039688110E0,1.887466431E0,7.591903687E0
4.002685540E-1,-9.534912109E-1,1.906631470E0,7.383605957E0
4.052429200E-1,-8.696899414E-1,1.937744141E0,7.275863647E0
4.102478020E-1,-7.859039307E-1,1.940139771E0,7.283050537E0
4.152526850E-1,-6.350555420E-1,1.930572510E0,7.405151367E0
4.202575680E-1,-4.483184814E-1,1.937744141E0,7.692459106E0
4.252624510E-1,-3.477630615E-1,1.918594360E0,8.190444946E0
4.302673340E-1,-3.812713623E-1,1.875503540E0,8.903915405E0
4.352722170E-1,-4.363403320E-1,1.794097900E0,9.835266113E0
4.402770990E-1,-5.488739014E-1,1.662414551E0,1.094139099E1
4.452819820E-1,-6.542205811E-1,1.521163940E0,1.202355957E1
4.502868650E-1,-5.440826416E-1,1.604949951E0,1.287829590E1
4.552917480E-1,-5.752105713E-1,1.509185791E0,1.333319092E1
4.602966310E-1,-7.571716309E-1,1.334411621E0,1.345768738E1
4.653015130E-1,-9.678497314E-1,1.157241821E0,1.325897217E1
4.703063960E-1,-1.142639160E0,1.066268921E0,1.265563965E1
4.753112790E-1,-1.240798950E0,1.061477661E0,1.187991333E1
4.803161620E-1,-1.250366211E0,1.104568481E0,1.110179138E1
4.853210450E-1,-1.207275391E0,1.176391602E0,1.038352966E1
4.903259270E-1,-1.092361450E0,1.308074951E0,9.761047363E0
4.953308100E-1,-9.534912109E-1,1.463699341E0,9.205581665E0
5.003356930E-1,-8.026580811E-1,1.590591431E0,8.702804565E0
5.053405760E-1,-6.542205811E-1,1.669601440E0,8.374801636E0
5.103454590E-1,-4.746551514E-1,1.638473511E0,8.233535767E0
5.153503420E-1,-2.184753418E-1,1.540313721E0,8.262268066E0
5.203552240E-1,-1.976013184E-2,1.492431641E0,8.518447876E0
5.253601070E-1,2.819213867E-1,1.485244751E0,8.896743774E0
5.303649900E-1,6.625976562E-1,1.403839111E0,9.136154175E0
5.353698730E-1,1.036087036E0,1.212310791E0,9.365997314E0
5.403747560E-1,1.416763306E0,9.824676514E-1,9.614990234E0
5.453796380E-1,1.778289795E0,7.957153320E-1,9.799346924E0
5.503845210E-1,2.063201904E0,6.544647217E-1,9.868789673E0
5.553894040E-1,2.266708374E0,5.802459717E-1,9.907089233E0
5.603942870E-1,2.367263794E0,5.993957520E-1,1.004116821E1
5.653991700E-1,2.391204834E0,6.999511719E-1,1.028297424E1
5.704040520E-1,2.379241943E0,8.962707520E-1,1.048648071E1
5.754089350E-1,2.360076904E0,1.116546631E0,1.062774658E1
5.804138180E-1,2.297836304E0,1.339202881E0,1.071154785E1
5.854187010E-1,2.149398804E0,1.545104980E0,1.076422119E1
5.904235840E-1,1.931518555E0,1.698333740E0,1.070436096E1
5.953979490E-1,1.675338745E0,1.830017090E0,1.052479553E1
6.004028320E-1,1.457473755E0,1.894653320E0,1.022552490E1
6.054077150E-1,1.222839355E0,1.882690430E0,9.746673584E0
6.104125970E-1,9.355316162E-1,1.841979980E0,9.181640625E0
6.154174800E-1,7.296295166E-1,1.952117920E0,8.633377075E0
6.204223630E-1,5.548553467E-1,2.035919189E0,8.070739746E0
6.254272460E-1,2.819213867E-1,1.995208740E0,7.608657837E0
6.304321290E-1,4.010009766E-2,1.966476440E0,7.225585938E0
6.354370110E-1,-2.448120117E-1,1.784515381E0,7.007705688E0
6.404418940E-1,-5.153503418E-1,1.542709351E0,6.914337158E0
6.454467770E-1,-7.451934814E-1,1.291320801E0,6.897583008E0
6.504516600E-1,-8.313903809E-1,9.920349121E-1,6.902359009E0
6.554565430E-1,-5.153503418E-1,5.562896729E-1,6.655761719E0
6.604614260E-1,5.924987793E-2,3.168792725E-1,6.667739868E0
6.654663080E-1,5.093688965E-1,3.767242432E-1,7.077148438E0
6.704711910E-1,8.230133057E-1,6.065826416E-1,7.702026367E0
6.754760740E-1,1.131851196E0,8.699340820E-1,8.302978516E0
6.804809570E-1,1.447891235E0,1.068649292E0,8.712387085E0
6.854858400E-1,1.653793335E0,1.229064941E0,8.896743774E0
6.904907220E-1,1.730407715E0,1.367935181E0,8.846466064E0
6.954956050E-1,1.739990234E0,1.480453491E0,8.676467896E0
7.005004880E-1,1.646606445E0,1.557067871E0,8.446624756E0
7.055053710E-1,1.471832275E0,1.585800171E0,8.281433105E0
7.105102540E-1,1.213256836E0,1.619323730E0,8.173690796E0
7.154846190E-1,9.786224365E-1,1.655242920E0,8.101867676E0
7.204895020E-1,7.751159668E-1,1.683959961E0,8.063552856E0
7.254943850E-1,8.421630859E-1,2.009582520E0,8.051589966E0
7.304992670E-1,5.907745361E-1,2.033523560E0,7.929473877E0
7.355041500E-1,2.436065674E-1,1.767761230E0,7.994125366E0
7.405090330E-1,2.340393066E-1,1.379898071E0,8.317337036E0
7.455139160E-1,6.123199463E-1,1.049499512E0,8.820129395E0
7.505187990E-1,1.055236816E0,7.885284424E-1,9.198410034E0
7.555236810E-1,1.490982056E0,5.802459717E-1,9.377975464E0
7.605285640E-1,2.032073975E0,3.887023926E-1,9.392333984E0
7.655334470E-1,2.563598633E0,1.828002930E-1,9.306152344E0
7.705383300E-1,2.939483643E0,-2.789306641E-2,9.191223145E0
7.755432130E-1,3.128616333E0,-2.218170166E-1,9.143341064E0
7.805480950E-1,3.087921143E0,-3.630828857E-1,9.121795654E0
7.855529780E-1,2.903564453E0,-4.085693359E-1,9.109817505E0
7.905578610E-1,2.666534424E0,-3.415222168E-1,9.121795654E0
7.955627440E-1,2.491760254E0,-1.787261963E-1,9.169677734E0
8.005676270E-1,2.381637573E0,5.630493164E-3,9.289382935E0
8.055725100E-1,2.295440674E0,1.468811035E-1,9.500076294E0
8.105773920E-1,2.182907104E0,2.115325928E-1,9.765838623E0
8.155822750E-1,2.044052124E0,1.875915527E-1,1.007707214E1
8.205871580E-1,1.876449585E0,1.061859131E-1,1.037635803E1
8.255920410E-1,1.689712524E0,-2.789306641E-2,1.063732910E1
8.305969240E-1,1.493377686E0,-1.332397461E-1,1.081449890E1
8.356018060E-1,1.404800415E0,-4.704284668E-2,1.077857971E1
8.406066890E-1,1.069610596E0,-2.409667969E-1,1.057267761E1
8.456115720E-1,6.865386963E-1,-5.210876465E-1,1.035719299E1
8.506164550E-1,4.136047363E-1,-8.562774658E-1,1.046493530E1
8.556213380E-1,2.986755371E-1,-1.078948975E0,1.065647888E1
8.606262200E-1,4.399414062E-1,-1.059783936E0,1.071154785E1
8.656311030E-1,7.870941162E-1,-8.562774658E-1,1.052958679E1
8.706359860E-1,1.251571655E0,-5.258789062E-1,1.019918823E1
8.756408690E-1,1.797439575E0,-1.236572266E-1,1.001243591E1
8.806457520E-1,2.400787354E0,1.564636230E-1,1.008665466E1
8.856506350E-1,2.992156982E0,2.450561523E-1,1.040269470E1
8.906555170E-1,3.638580322E0,-1.112365723E-2,1.080970764E1
8.956604000E-1,4.273056030E0,-6.000976562E-1,1.111137390E1
9.006652830E-1,4.706405640E0,-1.157958984E0,1.118319702E1
9.056701660E-1,5.003280640E0,-1.469192505E0,1.105390930E1
9.106750490E-1,5.223556519E0,-1.433288574E0,1.063970947E1
9.156494140E-1,5.369598389E0,-1.157958984E0,1.016087341E1
9.206542970E-1,5.324111938E0,-8.131866455E-1,9.734710693E0
9.256591790E-1,5.079895020E0,-5.187072754E-1,9.418670654E0
9.306640620E-1,4.577117920E0,-3.463134766E-1,9.246292114E0
9.356689450E-1,3.830123901E0,-2.577362061E-1,9.093063354E0
9.406738280E-1,2.961029053E0,-2.050628662E-1,8.961380005E0
9.456787110E-1,2.101516724E0,-1.667480469E-1,9.004470825E0
9.506835940E-1,1.347335815E0,-1.691436768E-1,9.167282104E0
9.556884760E-1,7.032928467E-1,-1.882934570E-1,9.387542725E0
9.606933590E-1,2.077026367E-1,-1.859130859E-1,9.588653564E0
9.656982420E-1,-1.562194824E-1,-2.026672363E-1,9.737106323E0
9.707031250E-1,-2.711486816E-1,-2.074584961E-1,9.852020264E0
9.757080080E-1,-1.466522217E-1,-1.643524170E-1,9.926239014E0
9.807128900E-1,1.645965576E-1,-1.332397461E-1,1.002679443E1
9.857177730E-1,5.955505371E-1,-1.428070068E-1,1.004835510E1
9.907226560E-1,1.143829346E0,-1.882934570E-1,1.002679443E1
9.957275390E-1,1.771102905E0,-2.266082764E-1,9.993286133E0
1.000732422E0,2.458251953E0,-2.098541260E-1,9.835266113E0
1.005737304E0,2.977783203E0,6.549072266E-2,9.365997314E0
1.010742187E0,3.049621582E0,1.351165771E0,9.035598755E0
1.015747070E0,3.140594482E0,1.317657471E0,8.149749756E0
1.020751953E0,3.523666382E0,1.308074951E0,7.491333008E0
1.025756836E0,4.031234741E0,5.227813721E-1,8.475357056E0
1.030761719E0,4.625000000E0,-3.391418457E-1,9.172073364E0
1.035766601E0,5.190032959E0,-5.905303955E-1,9.330093384E0
1.040771484E0,5.587463379E0,-6.120758057E-1,9.368392944E0
1.045776367E0,5.858016968E0,-3.487091064E-1,9.258255005E0
1.050781250E0,6.332061768E0,4.174346924E-1,9.282196045E0
1.055786133E0,6.396713257E0,7.933197021E-1,9.112213135E0
1.060791015E0,6.095031738E0,7.909240723E-1,9.085876465E0
1.065795898E0,5.649719238E0,6.496734619E-1,8.992507935E0
1.070800781E0,5.027221680E0,4.341888428E-1,9.023635864E0
1.075805664E0,4.179672241E0,1.660461426E-1,9.174468994E0
1.080810547E0,3.260299683E0,-1.045074463E-1,9.339660645E0
1.085815429E0,2.561203003E0,-2.409667969E-1,9.241500854E0
1.090820312E0,1.917160034E0,-2.768859863E-1,9.658096313E0
1.095825195E0,1.210861206E0,-2.960357666E-1,1.017045593E1
1.100799560E0,7.200622559E-1,-3.750457764E-1,1.004356384E1
1.105804443E0,3.202209473E-1,-6.192626953E-1,9.866394043E0
1.110809326E0,2.334594727E-2,-9.424743652E-1,9.782592773E0
1.115814209E0,4.968261719E-2,-1.141189575E0,9.746673584E0
1.120819092E0,2.627563477E-1,-1.191467285E0,9.665283203E0
1.125823974E0,5.620422363E-1,-1.093307495E0,9.543167114E0
1.130828857E0,9.906005859E-1,-8.562774658E-1,9.411483765E0
1.135833740E0,1.495773315E0,-5.785522461E-1,9.406707764E0
1.140838623E0,2.070388794E0,-2.194213867E-1,9.401916504E0
1.145843506E0,2.561203003E0,1.660461426E-1,9.234313965E0
1.150848388E0,2.884414673E0,4.437713623E-1,9.011657715E0
1.155853271E0,3.078338623E0,5.586853027E-1,8.822509766E0
1.160858154E0,3.662536621E0,1.073440552E0,8.626190186E0
1.165863037E0,3.940261841E0,1.116546631E0,8.523239136E0
1.170867920E0,4.069549561E0,8.627471924E-1,8.640563965E0
1.175872802E0,4.095886230E0,4.725036621E-1,8.635772705E0
1.180877685E0,4.112640381E0,1.397094727E-1,8.563949585E0
1.185882568E0,4.507690430E0,2.498321533E-1,8.377197266E0
1.190887451E0,4.811752319E0,2.737884521E-1,8.760269165E0
1.195892334E0,4.845260620E0,4.632568359E-2,9.200805664E0
1.200897217E0,4.768646240E0,-2.050628662E-1,9.562332153E0
1.205902099E0,4.526840210E0,-3.487091064E-1,9.705978394E0
1.210906982E0,4.040817261E0,-4.205322266E-1,9.823287964E0
1.215911865E0,3.463806152E0,-4.492645264E-1,1.014411926E1
1.220916748E0,3.068771362E0,-3.558959961E-1,1.051760864E1
1.225921631E0,2.961029053E0,-1.404113770E-1,1.069477844E1
1.230895996E0,3.107070923E0,1.181640625E-1,1.073069763E1
1.235900879E0,3.394378662E0,3.623657227E-1,1.070436096E1
1.240905761E0,3.688873291E0,5.251770020E-1,1.058943176E1
1.245910644E0,3.992935181E0,6.855773926E-1,1.038592529E1
1.250915527E0,4.328125000E0,9.872589111E-1,1.009144592E1
1.255920410E0,4.579513550E0,1.217102051E0,9.737106323E0
1.260925293E0,4.780624390E0,1.449340820E0,9.454589844E0
1.265930176E0,4.924270630E0,1.734237671E0,9.083480835E0
1.270935058E0,4.933853149E0,2.083801270E0,8.487335205E0
1.275939941E0,4.629791260E0,2.244201660E0,8.022857666E0
1.280944824E0,4.330505371E0,2.150833130E0,8.190444946E0
1.285949707E0,4.428680420E0,1.643264771E0,8.384384155E0
1.290954590E0,4.538803101E0,1.085418701E0,8.109039307E0
1.295959472E0,4.507690430E0,5.970001221E-1,7.721176147E0
1.300964355E0,4.354461670E0,2.953338623E-1,7.484161377E0
1.305969238E0,4.201232910E0,2.737884521E-1,7.567947388E0
1.310974121E0,4.198837280E0,5.084075928E-1,7.804977417E0
1.315979004E0,4.376007080E0,9.226074219E-1,8.042007446E0
1.320983886E0,4.586685181E0,1.401443481E0,8.204818726E0
1.325988769E0,4.646545410E0,1.731857300E0,8.243118286E0
1.330993652E0,4.548385620E0,1.911422729E0,8.085098267E0
1.335998535E0,4.330505371E0,1.913803101E0,7.826522827E0
1.341003418E0,4.100662231E0,1.770156860E0,7.615844727E0
1.346008301E0,3.913925171E0,1.595382690E0,7.527252197E0
1.351013183E0,3.820541382E0,1.504394531E0,7.560775757E0
1.356018066E0,3.798995972E0,1.525955200E0,7.630203247E0
1.361022949E0,3.784637451E0,1.585800171E0,7.639785767E0
1.366027832E0,3.741531372E0,1.624114990E0,7.553588867E0
1.371032715E0,3.696044922E0,1.645660400E0,7.443450928E0
1.376037597E0,3.734359741E0,1.660018921E0,7.306991577E0
1.381042480E0,3.957015991E0,1.698333740E0,7.129821777E0
1.386047363E0,4.399948120E0,1.779739380E0,7.065170288E0
1.391052246E0,4.960189819E0,1.976058960E0,6.974197388E0
1.396057129E0,5.470153809E0,2.237030029E0,6.746749878E0
1.401062011E0,5.846038818E0,2.378280640E0,6.430709839E0
1.406066894E0,6.068695068E0,2.294494629E0,6.121856689E0
1.411071777E0,6.205169678E0,2.071823120E0,5.951873779E0
1.416076660E0,6.329666138E0,1.798889160E0,5.892013550E0
1.421051025E0,6.411071777E0,1.537918091E0,5.865676880E0
1.426055908E0,6.430221558E0,1.253005981E0,5.880035400E0
1.431060791E0,6.425445557E0,9.561309814E-1,5.899200439E0
1.436065674E0,6.549942017E0,7.981109619E-1,5.841735840E0
1.441070556E0,6.705566406E0,6.736145020E-1,5.784271240E0
1.446075439E0,6.808517456E0,5.251770020E-1,5.702865601E0
1.451080322E0,6.858795166E0,3.144836426E-1,5.621475220E0
1.456085205E0,6.854003906E0,7.984924316E-2,5.549636841E0
1.461090088E0,6.851608276E0,-1.571807861E-1,5.520919800E0
1.466094970E0,6.854003906E0,-3.941955566E-1,5.535278320E0
1.471099853E0,6.870758057E0,-6.072845459E-1,5.607101440E0
1.476104736E0,6.899490356E0,-7.868499756E-1,5.717239380E0
1.481109619E0,7.009628296E0,-8.993835449E-1,5.870468140E0
1.486114502E0,7.356781006E0,-7.892456055E-1,6.117065430E0
1.491119385E0,7.919418335E0,-4.253234863E-1,6.375640869E0
1.496124267E0,8.544311523E0,2.478027344E-2,6.574356079E0
1.501129150E0,9.059066772E0,3.815155029E-1,6.643798828E0
1.506134033E0,9.353546143E0,5.419311523E-1,6.610275269E0
1.511138916E0,9.324813843E0,4.341888428E-1,6.548019409E0
1.516143799E0,9.001602173E0,7.026672363E-2,6.488174438E0
1.521148681E0,8.496429443E0,-4.492645264E-1,6.411560059E0
1.526153564E0,7.938568115E0,-9.688110352E-1,6.315780640E0
1.531158447E0,7.457336426E0,-1.383010864E0,6.193679810E0
1.536163330E0,7.102996826E0,-1.665527344E0,6.026092529E0
1.541168213E0,6.906677246E0,-1.809173584E0,5.889617920E0
1.546142578E0,6.971313477E0,-1.766082764E0,5.743576050E0
1.551147461E0,7.227493286E0,-1.529052734E0,5.485000610E0
1.556152344E0,7.550720215E0,-1.210617065E0,5.104324341E0
1.561157226E0,7.840408325E0,-9.688110352E-1,4.742797852E0
1.566162109E0,8.065460205E0,-8.874053955E-1,4.520141602E0
1.571166992E0,8.228271484E0,-9.089508057E-1,4.448303223E0
1.576171875E0,8.338409424E0,-9.999389648E-1,4.570419312E0
1.581176758E0,8.470092773E0,-1.050216675E0,4.850540161E0
1.586181640E0,8.606552124E0,-9.736022949E-1,5.106719971E0
1.591186523E0,8.805282593E0,-7.677001953E-1,5.319793701E0
1.596191406E0,9.159622192E0,-3.606872559E-1,5.542465210E0
1.601196289E0,1.010293579E1,9.082489014E-1,5.865676880E0
1.606201172E0,1.077569580E1,1.841979980E0,5.698089600E0
1.611206054E0,1.117074585E1,2.361526489E0,5.432327271E0
1.616210937E0,1.118750000E1,2.356735229E0,5.147415161E0
1.621215820E0,1.088822937E1,1.942535400E0,4.773925781E0
1.626220703E0,1.038066101E1,1.281738281E0,4.599151611E0
1.631225586E0,9.746200562E0,4.916534424E-1,4.647033691E0
1.636230469E0,9.025543213E0,-2.792816162E-1,4.795471191E0
1.641235351E0,8.321640015E0,-9.472656250E-1,4.929550171E0
1.646240234E0,7.742248535E0,-1.411743164E0,4.958282471E0
1.651245117E0,7.488464355E0,-1.541030884E0,4.941513062E0
1.656250000E0,7.399871826E0,-1.524261475E0,4.872085571E0
1.661254883E0,7.402267456E0,-1.478775024E0,4.637451172E0
1.666259765E0,7.466918945E0,-1.378219604E0,4.163406372E0
1.671264648E0,7.670425415E0,-1.160339355E0,3.686950684E0
1.676269531E0,7.984069824E0,-8.107910156E-1,3.471481323E0
1.681274414E0,8.364746094E0,-3.535003662E-1,3.538513184E0
1.686279297E0,8.805282593E0,1.588592529E-1,3.742019653E0
1.691284179E0,9.212295532E0,6.544647217E-1,3.971862793E0
1.696289062E0,9.566635132E0,1.152450562E0,4.218460083E0
1.701293945E0,9.798873901E0,1.561859131E0,4.524917603E0
1.706298828E0,9.954498291E0,1.877899170E0,4.788284302E0
1.711303711E0,1.002871704E1,2.134078979E0,4.927154541E0
1.716308594E0,1.005265808E1,2.335189819E0,4.994186401E0
