"Time (s)","Acceleration x (m/s^2)","Acceleration y (m/s^2)","Acceleration z (m/s^2)"
0.000000000E0,-1.905792236E0,3.610458374E0,9.074020386E0
5.112106000E-3,-1.915359497E0,3.624816895E0,9.126693726E0
1.011698900E-2,-1.915359497E0,3.610458374E0,9.198516846E0
1.512187200E-2,-1.896209717E0,3.576934814E0,9.318237305E0
2.012675500E-2,-1.905792236E0,3.591308594E0,9.375701904E0
2.513163700E-2,-1.972824097E0,3.634399414E0,9.370910645E0
3.013652000E-2,-2.130844116E0,3.658340454E0,9.275131226E0
3.514140300E-2,-2.284072876E0,3.691864014E0,9.126693726E0
4.014628600E-2,-2.336746216E0,3.696640015E0,9.006988525E0
4.515116900E-2,-2.355895996E0,3.696640015E0,8.872909546E0
5.012553400E-2,-2.288864136E0,3.667922974E0,8.815444946E0
5.513041700E-2,-2.154785156E0,3.648757935E0,8.834609985E0
6.013530000E-2,-1.991973877E0,3.620025635E0,8.872909546E0
6.514018200E-2,-1.819595337E0,3.605667114E0,8.882492065E0
7.014506500E-2,-1.671157837E0,3.562576294E0,8.959106445E0
7.514994800E-2,-1.537078857E0,3.509902954E0,9.035720825E0
8.015483100E-2,-1.355117798E0,3.471588135E0,9.026138306E0
8.512919600E-2,-1.144424438E0,3.409347534E0,9.050079346E0
9.013407900E-2,-8.571166992E-1,3.327941895E0,9.112335205E0
9.513896200E-2,-5.410919189E-1,3.275268555E0,9.188949585E0
1.001438440E-1,-3.064575195E-1,3.251327515E0,9.323028564E0
1.051487270E-1,-2.154846191E-1,3.294418335E0,9.409210205E0
1.101536100E-1,-9.576416016E-2,3.351882935E0,9.490615845E0
1.151584930E-1,-5.746459961E-2,3.418914795E0,9.514556885E0
1.201328580E-1,-9.576416016E-2,3.505111694E0,9.615112305E0
1.251377410E-1,-2.106933594E-1,3.605667114E0,9.648635864E0
1.301426240E-1,-3.639221191E-1,3.663131714E0,9.686935425E0
1.351475070E-1,-5.219421387E-1,3.711013794E0,9.653427124E0
1.401523890E-1,-7.757263184E-1,3.730163574E0,9.548080444E0
1.451572720E-1,-9.768371582E-1,3.682281494E0,9.380477905E0
1.501621550E-1,-1.091751099E0,3.600875854E0,9.165008545E0
1.551365200E-1,-1.230621338E0,3.538635254E0,8.920791626E0
1.601414030E-1,-1.426940918E0,3.490753174E0,8.676589966E0
1.651462860E-1,-1.584960938E0,3.490753174E0,8.480270386E0
1.701511690E-1,-1.594543457E0,3.495529175E0,8.355758667E0
1.751560510E-1,-1.594543457E0,3.519470215E0,8.288726807E0
1.801609340E-1,-1.551437378E0,3.562576294E0,8.226470947E0
1.851353000E-1,-1.517929077E0,3.620025635E0,8.173797607E0
1.901401820E-1,-1.398208618E0,3.682281494E0,8.192962646E0
1.951450650E-1,-1.163589478E0,3.720596313E0,8.202529907E0
2.001499480E-1,-9.289550781E-1,3.706222534E0,8.178588867E0
2.051548310E-1,-7.326202393E-1,3.663131714E0,8.125915527E0
2.101597140E-1,-6.033325195E-1,3.600875854E0,8.097183228E0
2.151340790E-1,-5.315093994E-1,3.552993774E0,8.101974487E0
2.201389620E-1,-4.596862793E-1,3.495529175E0,8.054092407E0
2.251438440E-1,-4.980010986E-1,3.442855835E0,7.996627808E0
2.301487270E-1,-6.560058594E-1,3.414138794E0,7.967910767E0
2.351536100E-1,-7.613525391E-1,3.428497314E0,7.910446167E0
2.401584930E-1,-7.134704590E-1,3.509902954E0,7.848190308E0
2.451328580E-1,-7.182617188E-1,3.615249634E0,7.862564087E0
2.501377410E-1,-6.512298584E-1,3.778045654E0,7.915237427E0
2.551426240E-1,-6.320648193E-1,3.892974854E0,7.939178467E0
2.601475070E-1,-6.751708984E-1,3.921707153E0,7.795516968E0
2.651523890E-1,-8.523406982E-1,3.801986694E0,7.508209229E0
2.701572720E-1,-9.576873779E-1,3.634399414E0,7.249649048E0
2.751316370E-1,-1.015136719E0,3.485961914E0,6.986282349E0
2.801365200E-1,-7.326202393E-1,3.375823975E0,6.914459229E0
2.851414030E-1,-2.729339600E-1,3.232177734E0,7.364562988E0
2.901462860E-1,1.723785400E-1,3.050216675E0,8.221694946E0
2.951511690E-1,6.703796387E-1,2.858673096E0,9.078811646E0
3.001560510E-1,9.385223389E-1,2.628829956E0,9.572021484E0
3.051304170E-1,1.206680298E0,2.470809937E0,9.921569824E0
3.101353000E-1,1.651992798E0,2.437301636E0,1.039562988E1
3.151401820E-1,1.881835938E0,2.461242676E0,1.071644592E1
3.201450650E-1,2.082962036E0,2.518707275E0,1.090319824E1
3.251499480E-1,1.977615356E0,2.614471436E0,1.088404846E1
3.301548310E-1,1.177947998E0,2.959228516E0,1.047702026E1
3.351291960E-1,6.129150391E-1,3.462020874E0,8.992614746E0
3.401340790E-1,-6.081237793E-1,3.189071655E0,9.141067505E0
3.451389620E-1,-1.556228638E0,3.466796875E0,9.141067505E0
3.501438440E-1,-2.331954956E0,3.701431274E0,8.690948486E0
3.551487270E-1,-2.873046875E0,3.830718994E0,8.365341187E0
3.601536100E-1,-2.695877075E0,4.055770874E0,8.408432007E0
3.651279750E-1,-1.991973877E0,4.309570312E0,8.403656006E0
3.701328580E-1,-1.331176758E0,4.381393433E0,8.078033447E0
3.751377410E-1,-8.044586182E-1,4.400543213E0,7.627929688E0
3.801336160E-1,-5.746154785E-1,4.371810913E0,7.120361328E0
3.851384990E-1,-6.224975586E-1,4.266464233E0,6.574478149E0
3.901433810E-1,-8.379669189E-1,4.103668213E0,6.124374390E0
3.951177470E-1,-1.187530518E0,3.849884033E0,5.793975830E0
4.001226290E-1,-1.795654297E0,3.428497314E0,5.626373291E0
4.051275120E-1,-2.552215576E0,2.892196655E0,5.760452271E0
4.101323950E-1,-3.155563354E0,2.480392456E0,5.813125610E0
4.151372780E-1,-3.098098755E0,2.403778076E0,5.415679932E0
4.201421610E-1,-2.892196655E0,2.418136597E0,4.989517212E0
4.251165260E-1,-2.580947876E0,2.365478516E0,4.975158691E0
4.301214090E-1,-1.747772217E0,2.494750977E0,5.425262451E0
4.351262920E-1,-1.000778198E0,2.600097656E0,6.162673950E0
4.401311740E-1,-3.878631592E-1,2.609680176E0,6.976699829E0
4.451360570E-1,1.867523193E-1,2.528274536E0,7.589614868E0
4.501409400E-1,4.548950195E-1,2.336746216E0,8.001419067E0
4.551153050E-1,6.081237793E-1,2.255340576E0,8.427597046E0
4.601201880E-1,5.506591797E-1,2.207458496E0,8.868118286E0
4.651250710E-1,-5.267333984E-2,2.111679077E0,9.572021484E0
4.701299540E-1,-9.337310791E-1,1.810012817E0,1.143949890E1
4.751348360E-1,-1.489196777E0,1.632843018E0,1.312022400E1
4.801397190E-1,-1.881835938E0,2.250549316E0,1.256956482E1
4.851140850E-1,-2.159576416E0,2.657562256E0,1.185130310E1
4.901189670E-1,-2.647979736E0,2.695877075E0,1.188960266E1
4.951238500E-1,-3.098098755E0,2.557006836E0,1.207156372E1
5.001287330E-1,-3.145980835E0,2.360687256E0,1.198536682E1
5.051336160E-1,-3.141189575E0,2.159576416E0,1.185130310E1
5.101384990E-1,-3.193862915E0,1.862686157E0,1.204283142E1
5.151128640E-1,-3.189071655E0,1.589752197E0,1.227267456E1
5.201177470E-1,-3.203445435E0,1.436523438E0,1.234928894E1
5.251226290E-1,-2.983169556E0,1.235412598E0,1.210508728E1
5.301275120E-1,-2.762908936E0,1.259353638E0,1.169328308E1
5.351323950E-1,-2.691085815E0,1.436523438E0,1.203804016E1
5.401372780E-1,-2.054229736E0,1.479614258E0,1.192312622E1
5.451116430E-1,-8.331756592E-1,1.522705078E0,1.136767578E1
5.501165260E-1,6.799468994E-1,1.594543457E0,1.063024902E1
5.551214090E-1,2.001556396E0,1.537078857E0,9.902420044E0
5.601262920E-1,3.045425415E0,1.546661377E0,9.409210205E0
5.651311740E-1,4.343078613E0,1.824386597E0,8.920791626E0
5.701360570E-1,5.348648071E0,1.977615356E0,8.370132446E0
5.751104220E-1,6.014236450E0,2.030288696E0,7.771575928E0
5.801153050E-1,6.378158569E0,1.996765137E0,7.201751709E0
5.851201880E-1,6.713348389E0,2.633621216E0,6.703765869E0
5.901250710E-1,6.167465210E0,2.609680176E0,7.302322388E0
5.951299540E-1,4.884170532E0,1.465255737E0,8.422805786E0
6.001348360E-1,4.223373413E0,1.642425537E0,8.063674927E0
6.051092020E-1,3.327941895E0,1.651992798E0,7.881713867E0
6.101140850E-1,2.375045776E0,1.374267578E0,7.757217407E0
6.151189670E-1,1.723831177E0,9.624633789E-1,7.819458008E0
6.201238500E-1,1.240203857E0,6.847381592E-1,7.805099487E0
6.251287330E-1,9.624633789E-1,5.458831787E-1,7.690170288E0
6.301336160E-1,8.523406982E-1,5.363006592E-1,7.383712769E0
6.351079810E-1,8.858489990E-1,5.650329590E-1,6.818679810E0
6.401128640E-1,1.082183838E0,5.315093994E-1,6.220138550E0
6.451177470E-1,1.422149658E0,4.884185791E-1,5.683837891E0
6.501226290E-1,1.795654297E0,3.639221191E-1,5.195419312E0
6.551275120E-1,2.135635376E0,1.484375000E-1,4.663909912E0
6.601323950E-1,2.394195557E0,-1.244964600E-1,4.194641113E0
6.651067600E-1,2.576156616E0,-3.878631592E-1,3.883392334E0
6.701116430E-1,2.710235596E0,-5.985565186E-1,3.715805054E0
6.751165260E-1,2.868255615E0,-7.565612793E-1,3.768478394E0
6.801214090E-1,2.992752075E0,-9.097900391E-1,4.065353394E0
6.851262920E-1,3.031066895E0,-1.029510498E0,4.410125732E0
6.901311740E-1,3.026275635E0,-1.101333618E0,4.778823853E0
6.951055400E-1,3.040634155E0,-1.134857178E0,5.104431152E0
7.001104220E-1,3.098098755E0,-1.115692139E0,5.329498291E0
7.051153050E-1,3.203445435E0,-1.067810059E0,5.501876831E0
7.101201880E-1,3.241744995E0,-1.101333618E0,5.525817871E0
7.151250710E-1,3.213012695E0,-1.177947998E0,5.458786011E0
7.201299540E-1,3.083724976E0,-1.321594238E0,5.305557251E0
7.251043190E-1,2.940078735E0,-1.422149658E0,5.037399292E0
7.301092020E-1,2.834732056E0,-1.426940918E0,4.793197632E0
7.351140850E-1,2.782058716E0,-1.350326538E0,4.572921753E0
7.401189670E-1,2.849105835E0,-1.225830078E0,4.448425293E0
7.451238500E-1,3.007110596E0,-1.039077759E0,4.472366333E0
7.501287330E-1,3.213012695E0,-8.283996582E-1,4.659118652E0
7.551030980E-1,3.399765015E0,-6.272735596E-1,4.989517212E0
7.601079810E-1,3.495529175E0,-4.692687988E-1,5.391738892E0
7.651128640E-1,3.466796875E0,-4.261627197E-1,5.870590210E0
7.701177470E-1,3.375823975E0,-5.363006592E-1,6.330276489E0
7.751226290E-1,3.342300415E0,-7.948760986E-1,6.799530029E0
7.801275120E-1,3.457229614E0,-1.163589478E0,7.244857788E0
7.851018770E-1,3.715805054E0,-1.532287598E0,7.671020508E0
7.901067600E-1,4.094085693E0,-1.810012817E0,8.087615967E0
7.951116430E-1,4.553771973E0,-1.934509277E0,8.470687866E0
8.001165260E-1,5.109222412E0,-1.920150757E0,8.676589966E0
8.051214090E-1,5.631164551E0,-1.814804077E0,8.777145386E0
8.101262920E-1,5.980712891E0,-1.695098877E0,8.820236206E0
8.151006570E-1,6.138732910E0,-1.546661377E0,8.992614746E0
8.201055400E-1,6.081268311E0,-1.441314697E0,9.179367065E0
8.251104220E-1,5.908889771E0,-1.331176758E0,9.447525024E0
8.301153050E-1,5.693405151E0,-1.139633179E0,9.854537964E0
8.351201880E-1,5.439620972E0,-8.523406982E-1,1.034295654E1
8.401250710E-1,5.133163452E0,-5.746154785E-1,1.076911926E1
8.450994360E-1,4.817138672E0,-3.399810791E-1,1.107557678E1
8.501043190E-1,4.568130493E0,-1.628112793E-1,1.133415222E1
8.551092020E-1,4.405334473E0,-6.225585938E-2,1.149696350E1
8.601140850E-1,4.314346313E0,-8.619689941E-2,1.156878662E1
8.651189670E-1,4.328720093E0,-2.346343994E-1,1.152568054E1
8.701238500E-1,4.414901733E0,-4.548950195E-1,1.136288452E1
8.750982150E-1,4.553771973E0,-7.182617188E-1,1.108036804E1
8.801030980E-1,4.692642212E0,-9.624633789E-1,1.069729614E1
8.851079810E-1,4.812347412E0,-1.197097778E0,1.026155090E1
8.901128640E-1,4.884170532E0,-1.393432617E0,9.816223145E0
8.951177470E-1,4.874588013E0,-1.561019897E0,9.509765625E0
9.001226290E-1,4.817138672E0,-1.666366577E0,9.299072266E0
9.050969950E-1,4.721359253E0,-1.699890137E0,9.169799805E0
9.101018770E-1,4.596862793E0,-1.685516357E0,9.251190186E0
9.151067600E-1,4.472366333E0,-1.642425537E0,9.476257324E0
9.201116430E-1,4.343078613E0,-1.594543457E0,9.792282104E0
9.251165260E-1,4.194641113E0,-1.522705078E0,1.014662170E1
9.301214090E-1,4.065353394E0,-1.470046997E0,1.056800842E1
9.350957740E-1,3.983947754E0,-1.422149658E0,1.094149780E1
9.401006570E-1,3.955215454E0,-1.412582397E0,1.131979370E1
9.451055400E-1,3.955215454E0,-1.460464478E0,1.157835388E1
9.501104220E-1,3.983947754E0,-1.580169678E0,1.172201538E1
9.551153050E-1,4.074935913E0,-1.747772217E0,1.175552368E1
9.601201880E-1,4.232955933E0,-1.920150757E0,1.164060974E1
9.650945530E-1,4.429275513E0,-2.087738037E0,1.138682556E1
9.700994360E-1,4.687850952E0,-2.212249756E0,1.106121826E1
9.751043190E-1,4.951202393E0,-2.312805176E0,1.071644592E1
9.801092020E-1,5.114013672E0,-2.398986816E0,1.034295654E1
9.851140850E-1,5.147537231E0,-2.547424316E0,1.001733398E1
9.901189670E-1,5.066131592E0,-2.724594116E0,9.835388184E0
9.950933330E-1,4.888961792E0,-2.930496216E0,9.777923584E0
1.000098215E0,4.702209473E0,-3.107681274E0,9.782714844E0
1.005103098E0,4.596862793E0,-3.227386475E0,9.768341064E0
1.010107981E0,4.601654053E0,-3.294418335E0,9.667785645E0
1.015112864E0,4.668701172E0,-3.342300415E0,9.576812744E0
1.020117747E0,4.812347412E0,-3.351882935E0,9.481033325E0
1.025092112E0,4.955993652E0,-3.385406494E0,9.414001465E0
1.030096995E0,5.094863892E0,-3.409347534E0,9.394851685E0
1.035101877E0,5.176269531E0,-3.466796875E0,9.418792725E0
1.040106760E0,5.200210571E0,-3.552993774E0,9.543289185E0
1.045111643E0,5.118804932E0,-3.715805054E0,9.610321045E0
1.050116526E0,4.994308472E0,-3.897766113E0,9.619903564E0
1.055090891E0,4.893753052E0,-4.060562134E0,9.706100464E0
1.060095774E0,4.817138672E0,-4.208999634E0,9.926361084E0
1.065100657E0,4.817138672E0,-4.343078613E0,1.028070068E1
1.070105540E0,4.884170532E0,-4.481948853E0,1.059674072E1
1.075110422E0,5.061340332E0,-4.630386353E0,1.080743408E1
1.080115305E0,5.319915771E0,-4.817138672E0,1.089361572E1
1.085089670E0,5.597640991E0,-5.085281372E0,1.092713928E1
1.090094553E0,5.861007690E0,-5.396530151E0,1.093670654E1
1.095099436E0,6.105209351E0,-5.669464111E0,1.089840698E1
1.100104319E0,6.296752930E0,-5.865798950E0,1.084573364E1
1.105109202E0,6.430831909E0,-5.995086670E0,1.079785156E1
1.110114085E0,6.536163330E0,-6.033386230E0,1.075953674E1
1.115088450E0,6.574478149E0,-6.019027710E0,1.073081970E1
1.120093333E0,6.588836670E0,-5.971145630E0,1.080264282E1
1.125098215E0,6.608001709E0,-5.880157471E0,1.088882446E1
1.130103098E0,6.588836670E0,-5.798751831E0,1.101332092E1
1.135107981E0,6.488281250E0,-5.755661011E0,1.104684448E1
1.140112864E0,6.320693970E0,-5.741302490E0,1.105163574E1
1.145087229E0,6.066909790E0,-5.731719971E0,1.102290344E1
1.150092112E0,5.746078491E0,-5.765243530E0,1.101332092E1
1.155096995E0,5.386947632E0,-5.841857910E0,1.096543884E1
1.160101877E0,5.051773071E0,-5.884948730E0,1.080264282E1
1.165106760E0,4.754882812E0,-5.856216431E0,1.059674072E1
1.170111643E0,4.592071533E0,-5.722137451E0,1.039562988E1
1.175086008E0,4.515457153E0,-5.621582031E0,1.023281860E1
1.180090891E0,4.414901733E0,-5.588073730E0,9.945510864E0
1.185095774E0,4.295196533E0,-5.626373291E0,9.562438965E0
1.190100657E0,4.118026733E0,-5.631164551E0,9.227249146E0
1.195105540E0,3.883392334E0,-5.602432251E0,9.011779785E0
1.200110422E0,3.682281494E0,-5.516235352E0,8.959106445E0
1.205084788E0,3.452438354E0,-5.430053711E0,9.069229126E0
1.210089670E0,3.232177734E0,-5.334274292E0,9.193740845E0
1.215094553E0,3.069366455E0,-5.200210571E0,9.385269165E0
1.220099436E0,2.940078735E0,-4.979934692E0,9.658203125E0
1.225104319E0,2.791641235E0,-4.668701172E0,9.950302124E0
1.230109202E0,2.537857056E0,-4.304779053E0,1.018972778E1
1.235083567E0,2.145202637E0,-3.926498413E0,1.040519714E1
1.240088450E0,1.647216797E0,-3.567367554E0,1.053448486E1
1.245093333E0,9.481048584E-1,-3.390182495E0,1.046266174E1
1.250098215E0,2.442016602E-1,-3.414138794E0,1.017056274E1
1.255103098E0,-1.101379395E-1,-3.361465454E0,9.739608765E0
1.260107981E0,0.000000000E0,-3.208236694E0,9.299072266E0
1.265082346E0,3.830718994E-1,-3.241744995E0,9.102752686E0
1.270087229E0,8.475494385E-1,-3.423706055E0,8.786727905E0
1.275092112E0,1.465255737E0,-3.706222534E0,8.504211426E0
1.280096995E0,2.312805176E0,-3.974380493E0,8.317459106E0
1.285101877E0,3.284851074E0,-4.146759033E0,8.303085327E0
1.290106760E0,4.213790894E0,-4.343078613E0,8.389282227E0
1.295081126E0,5.013458252E0,-4.601654053E0,8.370132446E0
1.300086008E0,5.650314331E0,-4.955993652E0,8.149856567E0
1.305090891E0,6.248870850E0,-5.248092651E0,7.747634888E0
1.310095774E0,6.727706909E0,-5.401321411E0,7.369354248E0
1.315100657E0,7.048522949E0,-5.559341431E0,7.067687988E0
1.320105540E0,7.177810669E0,-5.688629150E0,6.713348389E0
1.325110422E0,7.359771729E0,-5.755661011E0,6.382934570E0
1.330084788E0,7.694961548E0,-5.770019531E0,6.234497070E0
1.335089670E0,7.953536987E0,-5.659896851E0,6.339843750E0
1.340094553E0,7.934387207E0,-5.463562012E0,6.358993530E0
1.345099436E0,7.766784668E0,-5.272033691E0,6.277603149E0
1.350104319E0,7.551315308E0,-5.104431152E0,6.220138550E0
1.355109202E0,7.311889648E0,-4.941635132E0,6.110000610E0
1.360083567E0,7.153869629E0,-4.778823853E0,5.995086670E0
1.365088450E0,6.938400269E0,-4.635177612E0,5.822692871E0
1.370093333E0,6.646301270E0,-4.414901733E0,5.640747070E0
1.375098215E0,6.411666870E0,-4.228164673E0,5.482727051E0
1.380103098E0,6.354217529E0,-4.132385254E0,5.334274292E0
1.385107981E0,6.387725830E0,-4.084503174E0,5.137954712E0
1.390082346E0,6.555328369E0,-4.007888794E0,4.994308472E0
1.395087229E0,6.995864868E0,-3.840301514E0,4.960784912E0
1.400092112E0,7.608779907E0,-3.734954834E0,5.051773071E0
1.405096995E0,8.116348267E0,-3.763687134E0,5.003875732E0
1.410101877E0,8.441955566E0,-3.816360474E0,4.879379272E0
1.415106760E0,8.580825806E0,-3.835510254E0,4.673477173E0
1.420081126E0,8.609542847E0,-3.773254395E0,4.501098633E0
1.425086008E0,8.619125366E0,-3.672698975E0,4.405334473E0
1.430090891E0,8.518569946E0,-3.615249634E0,4.343078613E0
1.435095774E0,7.953536987E0,-3.667922974E0,4.266464233E0
1.440100657E0,7.311889648E0,-3.696640015E0,4.204223633E0
1.445105540E0,6.794738770E0,-3.505111694E0,4.175491333E0
1.450079905E0,6.272811890E0,-3.524261475E0,4.242523193E0
1.455084788E0,5.789184570E0,-3.529052734E0,4.319137573E0
1.460089670E0,5.602432251E0,-3.552993774E0,4.496307373E0
1.465094553E0,5.597640991E0,-3.591308594E0,4.711791992E0
1.470099436E0,5.645523071E0,-3.600875854E0,4.793197632E0
1.475104319E0,5.659896851E0,-3.634399414E0,4.778823853E0
1.480078684E0,5.674255371E0,-3.739746094E0,4.860229492E0
1.485083567E0,5.516235352E0,-3.892974854E0,4.898544312E0
1.490088450E0,5.406112671E0,-4.012680054E0,4.879379272E0
1.495093333E0,5.267242432E0,-4.103668213E0,4.754882812E0
1.500098215E0,5.161895752E0,-4.141967773E0,4.639968872E0
1.505103098E0,5.080490112E0,-4.185058594E0,4.486740112E0
1.510077463E0,4.984725952E0,-4.213790894E0,4.381393433E0
1.515082346E0,5.142745972E0,-4.185058594E0,4.424484253E0
1.520087229E0,5.444412231E0,-4.218582153E0,4.568130493E0
1.525092112E0,5.482727051E0,-4.381393433E0,4.558563232E0
1.530096995E0,5.506668091E0,-4.534622192E0,4.386184692E0
1.535101877E0,5.755661011E0,-4.572921753E0,4.108444214E0
1.540076243E0,6.167465210E0,-4.572921753E0,3.835510254E0
1.545081126E0,6.526596069E0,-4.649536133E0,3.687072754E0
1.550086008E0,6.622360229E0,-4.860229492E0,3.610458374E0
1.555090891E0,6.588836670E0,-5.027816772E0,3.600875854E0
1.560095774E0,6.550537109E0,-5.008666992E0,3.682281494E0
1.565100657E0,6.627151489E0,-4.826705933E0,3.979156494E0
1.570075022E0,6.560119629E0,-4.687850952E0,4.419692993E0
1.575079905E0,6.435607910E0,-4.616027832E0,4.702209473E0
1.580084788E0,6.320693970E0,-4.654327393E0,4.778823853E0
1.585089670E0,6.301544189E0,-4.774032593E0,4.692642212E0
1.590094553E0,6.478713989E0,-4.903320312E0,4.525039673E0
1.595099436E0,6.847412109E0,-4.989517212E0,4.376602173E0
1.600073801E0,7.297531128E0,-5.042190552E0,4.290405273E0
1.605078684E0,7.766784668E0,-5.027816772E0,4.170700073E0
1.610083567E0,8.231262207E0,-5.123596191E0,4.520248413E0
1.615088450E0,8.303085327E0,-5.003875732E0,4.697418213E0
1.620093333E0,8.149856567E0,-4.778823853E0,4.841079712E0
1.625098215E0,8.145080566E0,-4.582504272E0,4.893753052E0
1.630072581E0,8.169021606E0,-4.596862793E0,4.879379272E0
1.635077463E0,8.154647827E0,-4.726150513E0,4.534622192E0
1.640082346E0,8.015792847E0,-4.941635132E0,4.079727173E0
1.645087229E0,7.599197388E0,-5.238510132E0,3.706222534E0
1.650092112E0,7.163452148E0,-5.386947632E0,3.399765015E0
1.655096995E0,7.134719849E0,-5.243301392E0,3.327941895E0
1.660071360E0,7.402877808E0,-5.003875732E0,3.490753174E0
1.665076243E0,7.690170288E0,-4.908111572E0,3.629608154E0
1.670081126E0,7.814682007E0,-5.046981812E0,3.672698975E0
1.675086008E0,7.829040527E0,-5.243301392E0,3.663131714E0
1.680090891E0,7.891296387E0,-5.252883911E0,3.562576294E0
1.685095774E0,8.039733887E0,-5.066131592E0,3.514694214E0
1.690070139E0,8.082824707E0,-4.850646973E0,3.538635254E0
1.695075022E0,8.034942627E0,-4.769256592E0,3.572143555E0
1.700079905E0,8.006210327E0,-4.735733032E0,3.485961914E0
1.705084788E0,8.101974487E0,-4.673477173E0,3.361465454E0
1.710089670E0,8.216903687E0,-4.639968872E0,3.241744995E0
1.715094553E0,8.389282227E0,-4.673477173E0,3.088516235E0
1.720068918E0,8.523361206E0,-4.778823853E0,2.992752075E0
